-0.098390
0.627973
0.991169
1.112522
0.673249
-0.048039
-0.573639
-0.903553
-0.899673
-0.646647
0.003479
0.567716
1.029690
0.977828
0.699215
0.007460
-0.622313
-1.012842
-0.987819
-0.499162
-0.026141
0.544479
0.967273
0.958876
0.558064
-0.018577
-0.632617
-0.920424
-0.934826
-0.557536
-0.012180
0.680684
0.884383
0.888051
0.613335
-0.074060
-0.513574
-0.966500
-0.983182
-0.568417
-0.052431
0.570197
0.938158
0.998295
0.446286
0.018330
-0.671377
-1.026087
-0.953672
-0.498620
-0.012505
0.566980
0.906214
0.898444
0.537151
-0.041722
-0.668395
-0.980528
-0.773713
-0.515709
-0.047208
0.492530
0.982143
1.014311
0.560575
0.016104
-0.568609
-0.951573
-0.882648
-0.643399
-0.028577
0.609648
0.920656
0.941951
0.671032
0.093827
-0.635616
-0.949182
-1.047899
-0.643450
0.032427
0.677134
0.984107
0.924017
0.554100
0.013878
-0.602866
-0.960408
-1.047882
-0.613548
-0.043485
0.574385
0.938934
0.998119
0.544416
0.059656
-0.575184
-0.919814
-0.946945
-0.604316
-0.054034
0.584085
1.010005
0.931752
0.492545
0.021290
-0.653992
-0.932735
-0.912148
-0.623471
-0.010797
0.580717
0.895519
0.957562
0.600772
0.043496
-0.550756
-0.903166
-0.963890
-0.643850
-0.025249
0.612921
0.886381
0.919273
0.658253
-0.023829
-0.529173
-0.965195
-0.916567
-0.489723
0.042339
0.554221
1.071626
1.017760
0.583253
0.069434
-0.576422
-0.897321
-0.957957
-0.665905
-0.019273
0.569614
0.932724
0.938367
0.550132
-0.034256
-0.613010
-0.963037
-0.942888
-0.652203
0.011273
0.515443
0.958334
0.884433
0.691080
-0.021665
-0.629636
-0.899351
-1.009164
-0.665015
0.044442
0.589522
0.884508
0.943315
0.620412
-0.012245
-0.667013
-0.939199
-0.937611
-0.622485
0.034844
0.635511
0.961707
1.076838
0.519577
0.066219
-0.682848
-0.910924
-0.933638
-0.565203
0.050102
0.576967
1.010300
0.962285
0.523016
-0.051248
-0.670529
-0.959278
-0.997602
-0.618137
-0.026096
0.620335
1.022016
0.979206
0.582601
-0.067123
-0.605313
-0.956773
-0.923336
-0.658740
0.064586
0.576311
0.978855
0.898713
0.567660
0.086410
-0.489071
-0.984287
-0.887812
-0.582570
-0.079751
0.600306
1.003322
0.873159
0.647189
-0.074680
-0.550520
-0.927197
-1.021482
-0.578610
-0.070386
0.620103
0.977365
0.919339
0.659250
0.001463
-0.637099
-0.944916
-0.912729
-0.489388
-0.037910
0.509724
1.050696
0.938320
0.649985
0.101646
-0.621413
-1.006706
-0.924181
-0.557109
-0.092271
0.600739
1.077758
0.934320
0.597907
0.148358
-0.539618
-1.042595
-0.990683
-0.588991
-0.037292
0.606688
0.922053
0.900323
0.524245
-0.036273
-0.650789
-0.914271
-0.985444
-0.621740
0.034938
0.497895
0.841603
0.989476
0.592882
0.023940
-0.586329
-0.938787
-1.022219
-0.515787
0.122308
0.546676
0.928386
1.006916
0.650648
0.034374
-0.640621
-0.975389
-0.970142
-0.611205
0.074863
0.658759
0.926531
0.945399
0.519315
-0.039041
-0.546340
-0.919234
-0.968611
-0.577951
0.015633
0.547881
0.881097
0.898804
0.526039
0.045313
-0.551170
-0.929389
-1.016936
-0.616488
0.005274
0.643181
0.974710
0.949801
0.610898
-0.111871
-0.639265
-0.963409
-1.014083
-0.553177
-0.000271
0.623975
0.930024
0.915535
0.587233
0.002539
-0.611796
-1.036658
-0.919085
-0.638809
0.006192
0.626953
0.929499
0.952864
0.561762
0.005570
-0.544750
-0.934483
-0.968100
-0.576701
-0.004350
0.570539
0.932387
0.963319
0.628254
-0.035219
-0.542373
-0.949253
-0.955902
-0.633128
-0.019532
0.662250
0.951528
0.873626
0.671452
-0.020501
-0.523555
-1.000108
-0.880701
-0.621321
0.006261
0.529710
0.998923
0.984677
0.580362
-0.034615
-0.515865
-0.894969
-0.901891
-0.637905
0.052213
0.560001
0.952773
1.012699
0.617665
-0.027843
-0.600434
-0.934260
-1.017494
-0.599469
0.019890
0.643823
0.928077
0.893585
0.593641
0.019634
-0.621505
-0.969520
-0.996320
-0.566402
-0.029073
0.553036
0.871468
0.972705
0.586416
-0.046703
-0.593961
-0.847076
-0.996243
-0.615504
0.016440
0.517243
0.938883
0.896993
0.609493
-0.051985
-0.600167
-0.935801
-0.905795
-0.560743
0.063408
0.594423
0.968306
0.980770
0.543878
-0.037536
-0.571887
-1.017641
-0.945187
-0.554972
-0.120911
0.622107
0.918369
0.984512
0.586654
-0.045098
-0.645759
-1.033925
-0.860368
-0.541480
-0.017765
0.630588
0.925805
0.855840
0.625433
0.124494
-0.583810
-0.862916
-0.987759
-0.576815
-0.021908
0.622686
0.970429
0.940860
0.612137
0.067143
-0.609248
-0.936332
-0.946132
-0.647509
-0.052667
0.574052
0.899806
0.947775
0.523861
-0.102700
-0.659396
-0.859108
-0.899702
-0.572195
0.094868
0.630850
0.986979
0.968791
0.579854
0.102157
-0.616905
-0.906604
-0.977370
-0.510799
-0.043527
0.753528
0.999541
0.952828
0.609749
-0.015623
-0.683096
-0.958971
-0.941550
-0.533254
-0.048734
0.556227
0.929814
0.988518
0.638108
0.116742
-0.645915
-0.996980
-0.991788
-0.624331
-0.023385
0.495318
0.929320
0.971987
0.527148
-0.002504
-0.573086
-1.013326
-0.852259
-0.509129
0.037551
0.474589
0.945218
0.972222
0.589231
-0.001386
-0.682891
-1.104457
-0.934548
-0.692908
0.046727
0.564128
1.010531
0.967927
0.612054
-0.074579
-0.579089
-0.913137
-0.927649
-0.605869
-0.048785
0.630288
1.061866
0.974805
0.650460
0.005764
-0.610836
-0.981529
-0.960674
-0.543960
-0.010990
0.606127
0.981144
0.976093
0.639002
0.047097
-0.629512
-0.947532
-0.965479
-0.622267
-0.016127
0.602956
0.972832
0.895288
0.603863
0.070023
-0.505964
-0.963859
-0.964103
-0.595810
0.045671
0.489365
0.886265
0.923988
0.609244
0.027367
-0.662166
-0.947115
-0.986936
-0.505413
-0.005340
0.710189
0.895926
0.932141
0.537135
0.022565
-0.644199
-0.967452
-0.915224
-0.536680
-0.015575
0.525261
0.934228
0.960539
0.657022
-0.022296
-0.601194
-0.929209
-1.001549
-0.614482
-0.043371
0.548668
0.917014
0.979373
0.615100
0.018462
-0.620644
-0.936814
-0.907635
-0.587213
0.084873
0.669560
0.955938
0.975784
0.607104
-0.084375
-0.565978
-0.997188
-0.908743
-0.663188
-0.026086
0.602285
1.007252
0.950775
0.498641
-0.034568
-0.550289
-0.965154
-0.924578
-0.635526
0.078796
0.592538
0.933119
0.956427
0.648618
-0.041367
-0.590868
-0.993184
-0.922104
-0.521856
-0.025513
0.615139
1.002918
0.959041
0.598829
0.018423
-0.538599
-0.892283
-0.932836
-0.612036
0.063086
0.616775
0.948895
0.941016
0.591472
-0.039187
-0.557729
-0.802116
-1.047429
-0.586307
-0.083638
0.637746
0.958150
0.908689
0.601129
0.008740
-0.534388
-0.958997
-0.985458
-0.522461
-0.029843
0.549747
1.006540
1.026046
0.611328
-0.023889
-0.604821
-0.970902
-1.012354
-0.541148
0.029120
0.562472
0.986293
0.914808
0.571137
0.008261
-0.551658
-1.016401
-0.853046
-0.608989
0.013399
0.577658
0.863023
1.026197
0.636729
0.017618
-0.616854
-0.937204
-0.972923
-0.630385
-0.079082
0.616309
1.000249
0.832497
0.641254
0.120592
-0.483123
-0.945683
-0.941417
-0.550573
-0.067098
0.529768
0.975539
0.911029
0.469766
0.038866
-0.576959
-0.962763
-1.007453
-0.577306
0.084845
0.560742
0.919466
0.958253
0.570445
0.054686
-0.627088
-0.984527
-0.937110
-0.631543
-0.021283
0.532058
0.877885
0.971457
0.649086
-0.060460
-0.630973
-1.060117
-0.945862
-0.595726
0.133141
0.502562
0.878720
0.856882
0.576646
-0.052410
-0.585211
-0.913769
-0.892631
-0.555316
-0.060476
0.481907
0.984639
0.985998
0.576459
-0.022729
-0.588969
-0.955589
-0.924372
-0.503555
-0.042550
0.642765
0.974770
0.994537
0.526492
-0.046008
-0.567272
-0.885018
-0.975352
-0.596518
0.046161
0.518464
1.024402
0.916227
0.631890
-0.019752
-0.589222
-0.940589
-0.935840
-0.583098
-0.021732
0.513233
0.915016
0.893073
0.628114
-0.001889
-0.682250
-0.937953
-1.000025
-0.684447
-0.021963
0.607898
0.890441
0.973547
0.553421
0.021784
-0.480905
-0.959551
-0.864179
-0.541329
-0.041877
0.553652
0.932659
0.895068
0.582772
0.063677
-0.601026
-0.927670
-0.961071
-0.668652
-0.010574
0.602702
0.997214
0.980146
0.593597
-0.000513
-0.626898
-0.996588
-0.924713
-0.646298
0.031451
0.582740
0.901542
0.877871
0.584490
0.126541
-0.545800
-0.953815
-0.923346
-0.530107
-0.010930
0.593901
1.013054
0.892500
0.583809
0.092049
-0.601751
-0.938081
-0.920726
-0.497529
0.035886
0.658935
0.979064
0.951391
0.509055
0.081494
-0.527293
-0.916617
-0.980794
-0.537800
-0.044417
0.573912
0.970573
0.997846
0.644268
0.017458
-0.616510
-0.970200
-0.960764
-0.558055
-0.015878
0.553053
0.939137
1.039492
0.639599
0.058157
-0.575112
-0.905769
-0.955046
-0.637147
0.048600
0.482331
0.885410
0.923779
0.531743
-0.000463
-0.535198
-0.916760
-1.011430
-0.589349
-0.031414
0.583158
1.076199
0.962799
0.542831
-0.035812
-0.586497
-0.967125
-0.938732
-0.557944
-0.038312
0.633632
0.978247
0.989808
0.598762
-0.076235
-0.556919
-0.962430
-0.965444
-0.652696
0.050745
0.615216
0.860517
0.921088
0.566757
0.034359
-0.675729
-1.041957
-0.929967
-0.605953
-0.010618
0.588965
0.966737
0.901394
0.642297
0.034330
-0.551710
-1.084583
-0.871613
-0.569252
0.002154
0.642065
0.981837
0.941477
0.670539
-0.017569
-0.562793
-0.956126
-0.996617
-0.629580
-0.005642
0.575801
0.924050
0.994315
0.556979
-0.013163
-0.468735
-0.941032
-0.977341
-0.653532
0.008621
0.596106
0.962359
0.897127
0.565979
0.030267
-0.621163
-0.903128
-0.977141
-0.608580
0.121865
0.577454
0.874108
0.908029
0.619892
0.054396
-0.499880
-0.915200
-0.924113
-0.625515
-0.004495
0.617430
0.957176
0.977336
0.481371
-0.025258
-0.569424
-0.982035
-0.955307
-0.534922
0.035419
0.537705
0.941342
0.979117
0.638201
0.038068
-0.619602
-0.050993
-0.080689
-0.058276
0.014115
0.011773
0.048413
-0.036998
0.014519
-0.044805
0.066880
-0.042401
0.023731
0.058995
-0.030451
-0.001437
-0.036354
0.031007
0.033194
-0.022936
0.068405
0.026587
0.056230
-0.021755
0.077500
0.035015
-0.069942
0.023192
0.050811
0.025623
0.025639
0.034302
0.105592
0.000100
0.043177
-0.048596
-0.030131
0.003242
0.025585
0.054192
0.040328
-0.028611
0.005797
-0.042345
0.022089
-0.056940
0.106901
0.050352
-0.123618
-0.029288
-0.098498
0.066553
-0.011689
-0.069279
0.039713
0.013576
-0.038699
-0.030642
0.001118
-0.020282
-0.000967
-0.019193
-0.125316
-0.067869
0.099146
-0.017156
0.023531
0.020440
0.016258
-0.068332
0.026625
0.029994
0.005511
0.053393
0.007642
0.064016
0.051314
0.056034
0.032690
0.008093
-0.049654
0.024571
-0.051690
0.001646
-0.022041
0.000316
0.088477
-0.030773
0.056533
-0.058337
0.031826
-0.056616
0.008054
0.077819
-0.062860
-0.017240
0.004919
-0.024792
-0.058651
0.017811
0.024009
-0.034039
0.580381
0.933412
0.950077
0.669922
0.137133
-0.588293
-0.913491
-0.927524
-0.752456
-0.195341
0.441843
0.816250
0.897214
0.772019
0.215204
-0.370950
-0.903761
-1.027311
-0.701885
-0.207568
0.441921
0.861927
0.959446
0.772388
0.341866
-0.294015
-0.691911
-0.968861
-0.765640
-0.415289
0.268507
0.766582
1.011106
0.764741
0.339335
-0.208278
-0.662072
-0.993597
-0.858000
-0.455717
0.126204
0.691003
0.957348
0.916437
0.529182
-0.010082
-0.678546
-1.004233
-0.874178
-0.645275
0.020250
0.500722
1.052221
0.987613
0.511588
-0.011098
-0.529790
-0.930556
-1.012841
-0.660111
-0.094252
0.490169
1.010220
0.956381
0.766031
0.130648
-0.423960
-0.813892
-1.010660
-0.753171
-0.172820
0.334852
0.844357
1.048454
0.709951
0.257812
-0.376218
-0.838772
-0.931403
-0.777774
-0.251213
0.256642
0.789831
0.871105
0.776543
0.326667
-0.229747
-0.796735
-0.937562
-0.888082
-0.460467
0.230457
0.728460
0.997666
0.856122
0.465468
-0.073510
-0.675479
-0.910354
-0.976800
-0.486526
0.081377
0.552100
0.915985
0.982609
0.582116
0.038286
-0.581430
-0.969623
-0.899277
-0.680058
-0.149574
0.434993
0.828955
1.007760
0.787662
0.153907
-0.452918
-0.836138
-1.060884
-0.663178
-0.199881
0.375151
0.865866
0.954610
0.749416
0.255802
-0.305820
-0.740931
-0.989414
-0.760794
-0.296210
0.206740
0.825630
1.031298
0.838757
0.347081
-0.223808
-0.653254
-0.902530
-0.949748
-0.369061
0.234242
0.657064
1.028470
0.844582
0.462747
-0.006531
-0.670376
-0.951887
-0.928066
-0.534612
-0.028441
0.601654
0.850878
0.922461
0.508843
-0.062967
-0.486818
-1.011977
-0.900174
-0.701905
-0.008076
0.546619
0.975833
0.928672
0.648499
0.089164
-0.483866
-0.934397
-0.936260
-0.591193
-0.192887
0.486154
0.742768
0.925360
0.778190
0.261394
-0.350580
-0.815388
-0.882703
-0.824621
-0.254196
0.326555
0.853679
0.934109
0.891150
0.326389
-0.233860
-0.700418
-0.915217
-0.922329
-0.470920
0.279219
0.780019
0.966145
0.909725
0.416462
-0.167545
-0.581300
-0.904900
-0.906727
-0.561991
0.128339
0.666961
0.975927
0.969954
0.505187
-0.108670
-0.584706
-0.975792
-1.019190
-0.566988
-0.027540
0.563962
0.890555
0.913888
0.615835
0.151732
-0.426094
-0.886997
-0.986748
-0.739753
-0.166336
0.385721
0.855726
0.957952
0.700691
0.304883
-0.442430
-0.933596
-1.048992
-0.778780
-0.229103
0.292301
0.750875
0.946761
0.663762
0.288006
-0.333244
-0.796596
-1.008908
-0.763477
-0.410918
0.189690
0.806143
0.990759
0.888861
0.343000
-0.237945
-0.655430
-0.970236
-0.853675
-0.454742
0.027260
0.580599
0.952280
0.990421
0.572878
-0.092659
-0.686080
-0.973219
-0.965451
-0.616303
0.020733
0.584038
0.953292
0.973443
0.634317
0.068328
-0.420857
-0.915918
-0.964192
-0.629274
-0.179424
0.488988
0.865632
0.959073
0.711553
0.234688
-0.422730
-0.832763
-1.040507
-0.745804
-0.228012
0.419426
0.819827
0.870255
0.813215
0.292797
-0.365312
-0.736342
-0.977688
-0.775406
-0.353173
0.240907
0.761591
0.994451
0.834261
0.478907
-0.198499
-0.775364
-1.024383
-0.919082
-0.437780
0.106325
0.645064
1.038071
0.882228
0.485405
-0.049512
-0.635561
-0.902111
-0.911399
-0.609764
-0.014415
0.625228
0.922934
0.937414
0.573065
0.081989
-0.529766
-0.851351
-0.912283
-0.700078
-0.173963
0.436311
0.920097
0.928280
0.668510
0.080274
-0.434351
-0.868308
-0.984264
-0.758275
-0.175482
0.463949
0.832161
0.992685
0.818109
0.223546
-0.349204
-0.804228
-0.935744
-0.746449
-0.417574
0.222608
0.764431
1.014575
0.794335
0.475422
-0.258827
-0.742271
-1.000574
-0.943535
-0.385185
0.202793
0.842175
0.989738
0.927783
0.447067
-0.088607
-0.667250
-0.925553
-0.864498
-0.532970
0.047277
0.557995
1.021208
0.871338
0.567935
-0.027836
-0.547887
-0.931073
-1.023522
-0.635002
-0.047521
0.505058
0.869888
0.923896
0.655929
0.149540
-0.561894
-0.811820
-0.966777
-0.698561
-0.213604
0.357851
0.764226
1.051900
0.780898
0.238316
-0.241429
-0.788602
-0.989701
-0.819635
-0.281083
0.289928
0.786632
1.075710
0.747908
0.403067
-0.266483
-0.856917
-1.033079
-0.831245
-0.497041
0.261161
0.629240
1.026380
0.952264
0.462337
-0.115061
-0.714443
-1.002699
-0.823454
-0.554009
0.069035
0.644670
0.884243
0.963141
0.658793
-0.017270
-0.663594
-0.866918
-0.933226
-0.606875
-0.055988
0.565362
0.880849
0.920587
0.603781
0.190589
-0.522416
-0.898076
-0.915406
-0.735503
-0.142279
0.428146
0.862398
0.991254
0.760445
0.277102
-0.400331
-0.737893
-0.939540
-0.771205
-0.296907
0.332606
0.813848
1.024724
0.855627
0.234053
-0.195091
-0.766833
-0.986079
-0.803230
-0.372942
0.168140
0.667185
0.932239
0.815873
0.555195
-0.143338
-0.656607
-0.954635
-0.934345
-0.573933
0.158736
0.666875
0.975045
0.802485
0.634944
-0.073190
-0.601202
-0.910048
-1.034839
-0.534284
-0.030590
0.536226
0.948105
0.945225
0.627637
0.151215
-0.487480
-0.872893
-0.914338
-0.761622
-0.131889
0.365577
0.918939
0.984985
0.719206
0.210902
-0.408613
-0.777326
-1.004386
-0.826305
-0.238201
0.349247
0.737667
0.961319
0.765310
0.378401
-0.198811
-0.728024
-1.032134
-0.792804
-0.362180
0.242250
0.743800
1.003197
0.893213
0.502895
-0.150180
-0.694779
-0.962913
-0.898274
-0.474579
0.125931
0.630589
0.916010
0.918585
0.537917
0.012302
-0.663345
-0.938120
-0.969955
-0.639417
-0.005843
0.622095
0.945043
0.912394
0.599258
-0.062025
-0.395648
-0.864521
-0.974957
-0.673260
-0.164485
0.394759
0.901902
0.946033
0.770615
0.208390
-0.474180
-0.824932
-0.956503
-0.686775
-0.241059
0.336206
0.909793
1.000265
0.798293
0.346844
-0.262312
-0.812859
-0.969752
-0.835858
-0.367998
0.284278
0.692856
1.001238
0.906531
0.437712
-0.134960
-0.675351
-1.036501
-0.865428
-0.451665
0.206851
0.596751
0.956402
1.033077
0.518383
-0.066262
-0.546790
-0.783086
-0.850326
-0.502703
0.016555
0.613670
0.910425
0.908809
0.626560
0.038100
-0.513331
-0.891916
-0.936693
-0.664520
-0.142849
0.517581
0.903069
0.937694
0.771297
0.114618
-0.437571
-0.728126
-1.048982
-0.781678
-0.258701
0.404435
0.826484
0.939821
0.783875
0.232814
-0.343247
-0.629098
-0.912628
-0.816115
-0.423859
0.262345
0.734674
0.944997
0.876731
0.426622
-0.274697
-0.761681
-1.034120
-0.920940
-0.441895
0.140433
0.624520
0.924326
0.903697
0.542521
-0.107107
-0.563001
-0.992755
-0.956216
-0.610667
0.040036
0.641475
0.928402
0.920359
0.626273
-0.076920
-0.526796
-0.870519
-0.938951
-0.577073
-0.139323
0.495383
0.892226
1.064833
0.785540
0.157850
-0.448917
-0.880853
-1.019742
-0.657369
-0.166754
0.552674
0.828465
0.952346
0.695390
0.260683
-0.285450
-0.786183
-0.910415
-0.767999
-0.278762
0.210807
0.755350
0.986745
0.724526
0.438703
-0.191227
-0.756685
-0.915593
-0.930819
-0.440483
0.091614
0.695317
1.057309
0.850206
0.472526
-0.040489
-0.612198
-0.914524
-0.894564
-0.390600
0.108542
0.669147
0.952369
0.934759
0.560663
0.040273
-0.633075
-0.981876
-0.933129
-0.562253
-0.086901
0.633853
0.916346
1.009679
0.713099
0.099256
-0.445807
-0.790056
-0.942002
-0.704828
-0.201869
0.364869
0.841621
0.957480
0.795540
0.168129
-0.356917
-0.711079
-1.083659
-0.800581
-0.330327
0.300146
0.862591
0.966107
0.838122
0.342281
-0.270309
-0.762290
-0.826882
-0.885234
-0.405336
0.213640
0.652830
0.877470
0.884791
0.412098
-0.000291
-0.661792
-0.734996
-0.913145
-0.546510
0.041034
0.551599
1.031228
0.904291
0.520019
0.005008
-0.551645
-0.963958
-0.909280
-0.559846
-0.028179
0.513955
0.965101
0.928529
0.742702
0.053938
-0.506225
-0.847297
-0.971574
-0.660713
-0.185476
0.335285
0.820380
0.949586
0.657241
0.206530
-0.332528
-0.818941
-0.991163
-0.825823
-0.266851
0.275974
0.753007
0.958921
0.795895
0.248324
-0.185733
-0.790108
-0.981446
-0.862127
-0.345846
0.251725
0.676684
0.998191
0.929014
0.456468
-0.166218
-0.610374
-0.965755
-0.909895
-0.558587
0.103688
0.605141
1.000885
1.015005
0.577949
0.052001
-0.582523
-0.960733
-0.938894
-0.593861
-0.059015
0.496033
0.958229
0.954705
0.611276
-0.021558
-0.449695
-0.912446
-1.039690
-0.649858
-0.090808
0.389163
0.895040
0.991857
0.667610
0.194378
-0.398428
-0.870657
-1.054189
-0.790341
-0.310823
0.252397
0.814260
0.968912
0.921397
0.431318
-0.378529
-0.749035
-0.957326
-0.811152
-0.343141
0.197096
0.743208
0.947576
0.826324
0.401941
-0.174595
-0.672254
-0.868797
-0.957339
-0.491082
0.146778
0.718792
0.952968
0.838175
0.598379
-0.073915
-0.631740
-1.038217
-0.905077
-0.653430
-0.034864
0.530747
0.923329
0.849233
0.577368
0.067914
-0.509165
-0.922928
-0.916658
-0.620441
-0.089881
0.529447
0.884100
1.044454
0.687110
0.298384
-0.383481
-0.759873
-1.027729
-0.682356
-0.291919
0.288325
0.776238
0.990306
0.735118
0.286079
-0.304062
-0.751172
-0.996941
-0.867673
-0.348734
0.279843
0.696692
0.912901
0.919223
0.415141
-0.065863
-0.703234
-0.899686
-0.876434
-0.506319
0.123284
0.690022
1.039628
0.886657
0.483912
-0.023014
-0.620195
-1.014701
-0.971221
-0.657019
0.011381
0.620233
0.934262
0.974001
0.608140
0.041494
-0.517699
-0.874591
-0.933772
-0.687151
-0.111424
0.476603
0.880278
1.001597
0.681964
0.249897
-0.521676
-0.924457
-0.991947
-0.763329
-0.149853
0.398275
0.881193
1.067634
0.760679
0.342344
-0.413625
-0.752008
-1.053099
-0.780171
-0.353556
0.232017
0.748318
0.942954
0.854813
0.371168
-0.174979
-0.760463
-0.965753
-0.791372
-0.416923
0.088114
0.747561
0.972903
0.887175
0.483898
-0.088748
-0.639960
-1.005733
-0.847534
0.002930
0.048500
0.082476
-0.006480
0.031904
-0.009690
0.006411
0.054121
0.013447
-0.023996
0.001563
0.068310
0.009409
0.008121
0.008958
-0.015637
-0.060970
0.028484
0.063350
-0.020154
-0.004014
0.022945
-0.035612
0.040878
-0.081946
0.016739
-0.072689
-0.058192
0.070980
0.025028
0.078350
0.076227
-0.007226
-0.016941
0.032043
0.041230
0.046821
-0.054705
-0.031221
0.056670
-0.023897
-0.156640
-0.005000
-0.013236
-0.022792
0.023146
0.051822
-0.096091
-0.088827
0.045737
-0.013820
0.014480
0.025903
-0.050136
0.082623
0.021937
0.039577
0.004710
0.053820
0.041377
0.116706
0.005478
-0.002829
0.062559
0.032638
-0.036824
0.004795
-0.011231
-0.017288
-0.001614
-0.026098
-0.019231
-0.015287
0.025846
0.047692
0.024491
0.011673
-0.033518
0.003678
0.001138
0.022999
0.027645
-0.026107
-0.004376
-0.032435
-0.018708
0.002591
0.002605
-0.023451
0.028658
-0.024397
-0.034975
0.013367
0.113787
-0.000771
0.038185
-0.023545
0.013889
-0.097790
0.005802
0.008811
0.648078
0.941077
0.940123
0.668218
0.132428
-0.408775
-0.785579
-0.905447
-0.718294
-0.179300
0.284821
0.746288
0.991797
0.821593
0.348120
-0.251605
-0.795867
-1.005152
-0.859282
-0.317136
0.099357
0.594203
0.873659
0.813949
0.477092
0.030507
-0.626592
-1.000652
-0.949777
-0.691061
-0.148607
0.521461
0.855576
0.920368
0.769776
0.224465
-0.263810
-0.830943
-0.965806
-0.760359
-0.290563
0.289687
0.714393
0.882756
0.770782
0.398070
-0.178181
-0.671937
-0.879476
-0.895569
-0.564324
-0.044677
0.606050
0.973156
0.961856
0.647068
0.141218
-0.448030
-0.777483
-1.010440
-0.671897
-0.149578
0.443049
0.931957
1.026457
0.797783
0.285603
-0.185289
-0.834675
-0.914629
-0.765460
-0.451531
0.129856
0.663376
0.969333
0.919139
0.537810
-0.021365
-0.514252
-0.908136
-0.846965
-0.618692
-0.060274
0.479701
0.851120
0.900214
0.638797
0.242195
-0.308027
-0.805601
-0.911582
-0.752771
-0.415450
0.355477
0.780606
0.925510
0.813053
0.337801
-0.131898
-0.661330
-0.964212
-0.821267
-0.537686
-0.000086
0.567625
0.861471
0.839017
0.653102
0.104945
-0.514252
-0.931465
-0.904067
-0.729771
-0.176103
0.383597
0.808453
1.020680
0.833847
0.378685
-0.258432
-0.764923
-0.969528
-0.844456
-0.407757
0.216114
0.665946
0.968118
0.845671
0.525065
-0.012958
-0.477936
-0.928308
-0.927173
-0.601069
-0.019702
0.442476
0.844952
0.946904
0.683726
0.151386
-0.354496
-0.735716
-0.939589
-0.804352
-0.279057
0.325280
0.668790
0.969795
0.874839
0.299831
-0.203865
-0.704825
-1.011270
-0.880743
-0.485297
0.055107
0.612361
0.888174
0.981176
0.598741
0.015834
-0.412724
-0.851368
-0.991061
-0.676683
-0.118962
0.293166
0.872652
0.942254
0.775897
0.230717
-0.263713
-0.813038
-0.957017
-0.814054
-0.354369
0.281561
0.705468
0.937923
0.864198
0.485110
-0.062184
-0.595320
-0.889057
-0.844068
-0.617958
-0.075680
0.558804
0.944041
0.871571
0.630865
0.243729
-0.402646
-0.884013
-0.998582
-0.735071
-0.260944
0.185912
0.812246
1.019401
0.831416
0.376743
-0.171727
-0.667292
-0.872496
-0.829406
-0.456480
0.135090
0.679718
0.932458
0.898896
0.558854
0.008086
-0.422428
-0.820501
-0.968103
-0.658243
-0.033794
0.442225
0.837234
0.888610
0.724650
0.285406
-0.254788
-0.780600
-0.936039
-0.780283
-0.409463
0.281932
0.624206
0.977197
0.925684
0.519409
-0.088294
-0.650934
-0.875280
-0.872658
-0.603047
-0.104900
0.542967
0.947276
0.934551
0.646954
0.215719
-0.424229
-0.822684
-0.972024
-0.696057
-0.245350
0.343755
0.794002
0.960940
0.877685
0.315035
-0.194020
-0.774722
-0.956785
-0.851305
-0.547758
0.056437
0.688334
0.940893
0.883299
0.693202
0.015406
-0.597840
-0.869569
-1.004067
-0.701558
-0.124301
0.470935
0.844824
0.943659
0.667237
0.228335
-0.287576
-0.890821
-0.987928
-0.779616
-0.339672
0.284942
0.711181
0.924451
0.854798
0.493054
-0.125008
-0.695488
-1.043559
-0.956416
-0.605607
-0.075498
0.600855
0.852748
0.874623
0.685781
0.112269
-0.488598
-0.835319
-0.959455
-0.716221
-0.190238
0.259050
0.838066
0.981530
0.842398
0.363113
-0.210727
-0.726141
-0.955244
-0.877096
-0.420283
0.037328
0.693567
0.939443
0.861960
0.520735
0.099334
-0.570885
-0.863005
-0.926043
-0.633290
-0.166112
0.493544
0.846633
0.962095
0.699362
0.128479
-0.334210
-0.820187
-1.067613
-0.890858
-0.324176
0.194616
0.691903
0.995083
0.872085
0.438169
-0.195023
-0.684463
-0.955388
-0.724997
-0.597902
-0.045722
0.544955
0.897950
0.908144
0.645003
0.125269
-0.465322
-0.926413
-1.011405
-0.741022
-0.214685
0.251619
0.768200
1.036772
0.721079
0.316193
-0.284754
-0.677584
-0.979272
-0.788276
-0.419759
0.171952
0.715504
1.034265
0.902163
0.455044
-0.063063
-0.513385
-0.872544
-0.961356
-0.593139
-0.083696
0.498813
0.800569
0.977388
0.728086
0.138021
-0.301798
-0.778397
-0.947378
-0.731864
-0.331037
0.187187
0.799988
1.081403
0.861999
0.423893
-0.227385
-0.732158
-0.950646
-0.902424
-0.581384
-0.000756
0.514672
0.925657
0.966959
0.578411
0.164604
-0.495519
-0.853977
-0.892333
-0.649836
-0.171559
0.343378
0.887775
1.048503
0.818614
0.334004
-0.311980
-0.690314
-1.101689
-0.779624
-0.329523
0.175410
0.621497
0.950957
0.898742
0.541287
-0.035168
-0.601322
-0.929085
-0.984383
-0.517594
0.025384
0.525973
0.881113
0.849643
0.645349
0.158262
-0.381155
-0.812363
-0.950530
-0.805424
-0.283343
0.361396
0.815959
0.855939
0.838721
0.319007
-0.149138
-0.728733
-0.879461
-0.876463
-0.415992
0.036309
0.650027
0.897418
0.947977
0.654167
0.057353
-0.553818
-0.838169
-0.925511
-0.693924
-0.084351
0.370738
0.841283
0.981997
0.789925
0.267505
-0.239632
-0.767774
-0.977122
-0.813134
-0.336628
0.166934
0.531308
0.819337
0.788448
0.517952
-0.145452
-0.569814
-0.940385
-0.958065
-0.592599
-0.005512
0.432410
0.912917
0.944992
0.628512
0.008837
-0.444989
-0.837418
-0.923698
-0.794073
-0.252730
0.227827
0.754807
0.968157
0.852835
0.395917
-0.285709
-0.699852
-0.876171
-0.851960
-0.475194
0.051345
0.542570
0.908476
0.903286
0.619459
0.018822
-0.465592
-0.893970
-1.023878
-0.658908
-0.156884
0.410867
0.813946
1.002168
0.682927
0.249802
-0.326373
-0.750227
-1.052311
-0.750776
-0.364887
0.152379
0.696343
0.992546
0.851312
0.496879
-0.005402
-0.525733
-0.850770
-0.930494
-0.570954
-0.006529
0.595113
0.938705
0.845388
0.626877
0.179259
-0.434675
-0.839048
-0.891532
-0.759074
-0.173279
0.200007
0.779040
0.991489
0.826317
0.312850
-0.218778
-0.652318
-0.902539
-0.816342
-0.494568
0.004306
0.544648
0.885750
0.834049
0.548829
0.025191
-0.454845
-0.852276
-0.883975
-0.623261
-0.086187
0.377558
0.871923
0.941634
0.692669
0.255673
-0.294299
-0.830861
-0.990719
-0.767931
-0.305054
0.239750
0.714609
0.938953
0.848955
0.491242
-0.128679
-0.603155
-0.857225
-0.895983
-0.567480
-0.089582
0.490544
0.935809
0.972336
0.610288
0.136710
-0.523086
-0.838476
-1.006703
-0.687172
-0.239017
0.293021
0.761039
0.969656
0.813890
0.274690
-0.220466
-0.721048
-0.981051
-0.805372
-0.344037
0.095099
0.740509
0.965067
0.815959
0.598069
0.063102
-0.614785
-0.918867
-0.926348
-0.605038
-0.161523
0.491197
0.837367
0.946235
0.633298
0.191523
-0.272764
-0.811601
-1.023470
-0.793434
-0.354194
0.190807
0.754677
0.879417
0.873395
0.415807
-0.063653
-0.648172
-0.967273
-0.883114
-0.516458
-0.058507
0.576043
0.948988
0.920855
0.630053
0.108200
-0.406875
-0.879503
-0.868880
-0.642726
-0.157786
0.340921
0.825965
0.987662
0.784861
0.352878
-0.242809
-0.702179
-0.909938
-0.862129
-0.398113
0.108766
0.619521
0.885209
0.931448
0.514068
-0.005605
-0.558565
-0.851232
-0.954549
-0.545867
-0.014569
0.529685
0.829157
0.945922
0.706086
0.264860
-0.350407
-0.755712
-0.990142
-0.688555
-0.229430
0.302535
0.806002
0.975738
0.836994
0.430418
-0.127813
-0.727755
-1.006275
-0.933601
-0.489919
-0.017554
0.572597
0.944870
0.959571
0.619596
0.068873
-0.407289
-0.810768
-0.902249
-0.719126
-0.246258
0.367599
0.853937
0.943884
0.776557
0.321261
-0.257822
-0.711493
-0.900827
-0.892331
-0.462606
0.181732
0.592732
0.937096
0.935744
0.432033
-0.099548
-0.700041
-0.917100
-0.939682
-0.658561
0.007342
0.507396
0.752836
0.963479
0.698076
0.238918
-0.343553
-0.814472
-0.922223
-0.749253
-0.284835
0.347676
0.720776
1.012044
0.805303
0.384484
-0.168249
-0.653964
-0.936301
-0.881897
-0.556226
0.032612
0.609466
0.922293
0.895314
0.549178
0.045170
-0.360123
-0.866842
-0.988758
-0.667237
-0.126980
0.498647
0.802098
0.974173
0.748872
0.254042
-0.381654
-0.713656
-0.988668
-0.833842
-0.328405
0.220745
0.695042
0.920536
0.938247
0.493959
-0.027862
-0.659314
-0.877618
-0.930769
-0.584542
-0.083245
0.556958
0.986986
0.950184
0.675581
0.239648
-0.385747
-0.828650
-1.002279
-0.764106
-0.205596
0.288577
0.832482
1.003048
0.817257
0.325721
-0.148793
-0.652837
-0.983478
-0.847669
-0.489520
0.059871
0.541047
0.911884
0.963684
0.559769
0.078108
-0.553569
-0.858687
-0.922236
-0.709680
-0.214531
0.384374
0.930518
0.914093
0.688550
0.232410
-0.396765
-0.804817
-0.889953
-0.825092
-0.342538
0.208220
0.727931
0.927286
0.879267
0.501816
-0.087983
-0.538435
-0.984745
-0.890734
-0.630406
-0.058326
0.499594
0.853821
0.931388
0.598903
0.090431
-0.406992
-0.824571
-0.934841
-0.592105
-0.347236
0.247024
0.733321
0.967159
0.884891
0.381203
-0.209938
-0.665606
-0.905588
-0.907989
-0.490970
0.095700
0.557063
0.903641
0.976185
0.513100
-0.003212
-0.514819
-0.880649
-0.915119
-0.691854
-0.144286
0.413817
0.841936
0.923259
0.797677
0.178967
-0.350301
-0.850925
-0.926734
-0.740731
-0.388501
0.225139
0.774995
1.003083
0.929405
0.465940
-0.113591
-0.672930
-0.887083
-0.915690
-0.593925
-0.132209
0.545546
0.843166
0.930031
0.574417
0.099263
-0.456522
-0.803738
-1.016563
-0.682499
-0.308130
0.297892
0.835300
0.965804
0.776723
0.373131
-0.248921
-0.699784
-0.872195
-0.864644
-0.454376
0.126240
0.577502
0.871735
0.909100
0.547583
-0.003562
-0.495648
-0.874224
-0.899505
-0.570964
-0.099619
0.379171
0.862630
0.807426
0.766773
0.166245
-0.445924
-0.827975
-1.073018
-0.895277
-0.301007
0.152515
0.770566
0.972679
0.773098
0.370870
-0.116758
-0.584444
-0.888726
-0.824412
-0.574887
-0.003944
0.547476
0.879852
0.933269
0.620359
0.063019
-0.453319
-0.863574
-0.978027
-0.656708
-0.157969
0.254926
0.752017
0.933094
0.790954
0.266547
-0.167076
-0.711765
-0.931497
-0.869844
-0.443580
0.060727
-0.009193
0.018659
-0.078271
0.005775
-0.012941
0.062695
-0.020141
-0.043230
-0.017431
0.008750
0.042255
-0.030507
-0.001541
-0.064515
-0.047141
-0.029186
-0.028223
0.029065
-0.021930
-0.055744
-0.046305
0.093780
0.066977
0.045517
0.039018
0.017504
0.030448
-0.031173
-0.004344
0.100508
-0.015298
-0.018513
0.103540
-0.101967
0.047720
0.004621
-0.017209
0.121548
-0.023022
0.024580
-0.027666
-0.014384
-0.035903
-0.028823
-0.052485
0.003916
0.023007
0.019633
0.039431
0.059974
0.066145
0.065748
0.058789
0.011059
0.111328
-0.014123
0.021590
-0.000787
-0.044458
-0.040877
-0.085057
-0.047504
-0.042547
-0.095779
0.045088
-0.016420
-0.004813
-0.000480
-0.091756
-0.003434
-0.002562
-0.004661
-0.064214
0.000042
-0.011782
-0.037651
0.049382
0.018978
0.018280
-0.002757
0.031213
0.003995
-0.026429
0.001256
-0.041812
-0.022137
-0.005119
-0.047149
-0.002352
0.016963
0.064919
-0.027707
-0.006442
0.004948
-0.045940
-0.023422
-0.007838
-0.043960
0.038206
-0.076527
0.006871
0.531652
0.809368
0.924091
0.703608
0.217335
-0.387183
-0.759723
-0.965834
-0.724414
-0.315153
0.273531
0.735606
0.970919
0.872225
0.430798
0.024899
-0.665523
-0.906194
-0.956510
-0.664970
0.001143
0.387137
0.777654
0.910667
0.746161
0.246242
-0.270443
-0.720629
-0.839084
-0.768052
-0.526556
0.103154
0.660167
0.843135
0.962728
0.503558
0.111803
-0.483950
-0.784159
-0.943861
-0.640376
-0.190386
0.351117
0.807950
0.970482
0.781320
0.340866
-0.215725
-0.702319
-0.808812
-0.883364
-0.601219
-0.007775
0.524698
0.797981
0.895750
0.622862
0.132113
-0.460519
-0.845898
-0.921834
-0.781051
-0.364422
0.244074
0.801661
0.896259
0.909829
0.630707
-0.086950
-0.557616
-0.858031
-0.913861
-0.593440
-0.076550
0.430667
0.810197
0.984930
0.722909
0.295959
-0.352177
-0.583313
-0.895954
-0.859863
-0.450115
0.122175
0.621108
1.017686
0.910557
0.550954
0.065096
-0.492758
-0.822874
-0.934297
-0.634616
-0.200661
0.265691
0.701593
0.949280
0.823298
0.407673
-0.222078
-0.642167
-0.828908
-1.005144
-0.465815
0.045961
0.677358
0.946563
0.930275
0.616084
0.220034
-0.321119
-0.735562
-0.983235
-0.719008
-0.393394
0.183699
0.595321
0.887480
0.807233
0.470190
-0.074805
-0.556410
-0.957684
-0.858454
-0.577470
-0.159598
0.428623
0.849465
0.990542
0.788110
0.269610
-0.191924
-0.798628
-0.950169
-0.866857
-0.359050
0.047949
0.555121
0.911861
0.873797
0.553131
0.031498
-0.518901
-0.933616
-0.945008
-0.775522
-0.217958
0.367320
0.741979
0.865228
0.694240
0.377334
-0.099486
-0.585585
-0.921523
-0.801492
-0.604706
-0.019170
0.522406
0.855686
0.978406
0.677156
0.189981
-0.390583
-0.831261
-0.975319
-0.696069
-0.361436
0.250078
0.698844
1.011975
0.896730
0.526099
-0.008339
-0.521124
-0.882550
-0.906885
-0.651260
-0.142265
0.503553
0.873338
0.911491
0.701510
0.322152
-0.136930
-0.705349
-0.928695
-0.805948
-0.410289
0.055403
0.679245
1.008024
0.951008
0.568230
0.118259
-0.528676
-0.852988
-0.904342
-0.682543
-0.310540
0.288924
0.775224
0.921876
0.678576
0.424561
-0.135569
-0.695795
-0.901661
-0.871307
-0.505260
0.027844
0.532747
0.807986
0.922841
0.693924
0.166915
-0.344308
-0.786285
-1.037245
-0.832810
-0.256467
0.282225
0.598305
0.931385
0.866577
0.480673
-0.042838
-0.541271
-0.836571
-0.915072
-0.649680
-0.078763
0.454221
0.779177
0.914111
0.745815
0.282616
-0.309846
-0.815074
-0.951301
-0.833323
-0.371877
0.079822
0.543593
0.890475
0.844785
0.447274
0.020016
-0.533761
-0.940451
-0.889307
-0.675317
-0.275769
0.384811
0.746679
0.919738
0.860776
0.416589
-0.110091
-0.645719
-0.936479
-0.843883
-0.606310
-0.072553
0.529614
0.889281
0.854552
0.584069
0.183393
-0.387925
-0.742785
-0.988680
-0.786855
-0.301791
0.196509
0.626328
0.942460
0.841774
0.433821
0.032121
-0.447018
-0.959855
-0.925027
-0.617284
-0.164218
0.474951
0.682824
1.010722
0.854568
0.287273
-0.176570
-0.754670
-0.942493
-0.864169
-0.475330
0.123070
0.578867
0.880676
0.945612
0.560088
0.113450
-0.411936
-0.771828
-0.938438
-0.683769
-0.191161
0.347551
0.803091
0.920419
0.731402
0.416985
-0.084607
-0.559895
-0.896533
-0.891598
-0.509856
-0.001524
0.441669
0.859685
0.989232
0.595855
0.180130
-0.413514
-0.766790
-0.981465
-0.700084
-0.347962
0.144033
0.641449
0.852389
0.880118
0.516874
-0.020544
-0.541421
-0.856443
-0.859246
-0.642901
-0.049554
0.383714
0.826917
1.044223
0.777573
0.348920
-0.220581
-0.744500
-0.867912
-0.939186
-0.490373
0.154904
0.515618
0.987329
0.957131
0.610578
0.125016
-0.501424
-0.873830
-0.907834
-0.716601
-0.252539
0.294778
0.801242
0.903116
0.795306
0.446996
-0.110855
-0.589908
-0.962266
-0.926947
-0.585473
-0.017799
0.461779
0.890197
0.949751
0.652999
0.155885
-0.321331
-0.804342
-0.954963
-0.773712
-0.443958
0.276876
0.732049
0.915920
0.937372
0.562754
0.001017
-0.533768
-0.875075
-0.898447
-0.731030
-0.212090
0.394722
0.849087
1.017757
0.842855
0.315425
-0.272739
-0.743940
-0.963965
-0.825350
-0.304786
0.050871
0.634438
0.916208
0.932795
0.744899
0.057440
-0.478923
-0.889666
-0.915853
-0.778769
-0.327537
0.285273
0.757136
0.971937
0.838955
0.394734
-0.093826
-0.553944
-0.917055
-0.893848
-0.461213
-0.112659
0.596752
0.877395
0.956117
0.670940
0.192383
-0.409991
-0.726419
-0.961007
-0.761544
-0.320241
0.264020
0.668048
0.909501
0.872929
0.581076
0.035957
-0.432318
-0.903713
-0.891304
-0.562294
-0.040343
0.445916
0.810599
1.037472
0.761425
0.309498
-0.248338
-0.620152
-0.889882
-0.781533
-0.424322
0.038072
0.544222
1.007100
0.922823
0.655946
0.136028
-0.450482
-0.794467
-0.955114
-0.798462
-0.261250
0.341156
0.754908
0.951428
0.818028
0.441565
-0.099371
-0.684679
-0.953497
-0.944281
-0.568305
0.085990
0.515448
0.846806
0.953973
0.724126
0.209675
-0.329338
-0.775458
-0.922430
-0.788190
-0.420036
0.241793
0.657520
0.922329
0.922451
0.522676
-0.038071
-0.600539
-0.796413
-1.003124
-0.727562
-0.160662
0.351585
0.830812
0.959377
0.719676
0.313862
-0.233545
-0.735968
-1.004439
-0.804689
-0.497679
0.038636
0.538264
0.830228
0.898472
0.565409
0.057618
-0.484031
-0.873281
-0.941581
-0.764934
-0.308055
0.324390
0.708064
0.942618
0.788124
0.498168
-0.141253
-0.604417
-0.984778
-0.859700
-0.664714
-0.051116
0.519785
0.835768
0.975138
0.586725
0.177047
-0.378099
-0.867933
-0.925243
-0.847327
-0.267361
0.174088
0.653698
0.880657
0.894701
0.480374
-0.054468
-0.519174
-0.880578
-0.904494
-0.651086
-0.103685
0.428972
0.873631
1.006675
0.741770
0.215469
-0.211471
-0.659753
-0.958372
-0.813165
-0.509570
0.035526
0.487800
0.899931
0.909528
0.613682
0.074968
-0.348722
-0.804531
-0.925770
-0.616846
-0.261402
0.288067
0.652454
0.967834
0.763370
0.397741
-0.123496
-0.656431
-0.824888
-0.834660
-0.563031
-0.010004
0.456516
0.878862
0.857573
0.685485
0.335348
-0.349728
-0.732415
-0.962401
-0.821195
-0.322265
0.133517
0.667657
0.888197
0.821282
0.577190
0.087857
-0.619085
-0.952186
-0.818892
-0.597776
-0.109056
0.436093
0.782233
1.032565
0.752732
0.316081
-0.236690
-0.766161
-0.915000
-0.857977
-0.498121
0.076174
0.572672
0.817350
0.979468
0.666646
0.145418
-0.448475
-0.799834
-0.982984
-0.676632
-0.273215
0.199885
0.646195
0.907029
0.896656
0.398646
-0.118314
-0.556633
-0.810429
-0.886973
-0.597805
-0.058313
0.413550
0.793601
0.883677
0.681134
0.144053
-0.238446
-0.704411
-0.897278
-0.810501
-0.461968
0.172409
0.682615
0.857281
0.899031
0.596933
0.041514
-0.481717
-0.829759
-0.875163
-0.674100
-0.096278
0.356287
0.777370
1.029295
0.838234
0.300179
-0.262996
-0.815996
-0.983997
-0.925899
-0.569959
0.098891
0.551848
0.837361
0.978589
0.573094
0.071726
-0.428990
-0.772512
-0.899406
-0.737972
-0.322582
0.294309
0.683019
0.959974
0.867491
0.516035
-0.084326
-0.585116
-0.861852
-0.911709
-0.696319
-0.056277
0.524355
0.856138
1.036445
0.674885
0.246926
-0.258761
-0.772385
-0.895715
-0.725256
-0.311983
0.116266
0.657013
0.935510
0.789906
0.490371
-0.034150
-0.457985
-0.805950
-0.838305
-0.684342
-0.264611
0.288972
0.820621
0.865250
0.832124
0.397937
-0.146101
-0.720261
-0.898706
-0.917118
-0.419600
0.082417
0.625293
0.894220
0.938015
0.624533
0.102209
-0.499347
-0.920614
-0.895636
-0.680454
-0.180099
0.263652
0.677317
0.911905
0.824258
0.416547
-0.078998
-0.680755
-0.922449
-0.956789
-0.626883
-0.098171
0.421888
0.749273
0.893209
0.601190
0.223504
-0.297777
-0.721033
-0.916875
-0.759708
-0.411645
0.192984
0.633910
0.865562
0.904431
0.596964
-0.032740
-0.418101
-0.818494
-0.881040
-0.635680
-0.203052
0.371335
0.847840
0.907063
0.769516
0.295079
-0.183677
-0.678033
-0.905470
-0.835786
-0.555621
0.022510
0.533827
0.927553
0.968829
0.570135
0.101515
-0.457595
-0.864335
-0.959239
-0.897109
-0.355048
0.278325
0.628452
0.944933
0.863012
0.343431
-0.080816
-0.595968
-0.915507
-0.864472
-0.695329
-0.023470
0.559090
0.761099
0.873201
0.703699
0.291205
-0.296212
-0.783868
-0.984673
-0.778899
-0.445600
0.065490
0.709087
0.848114
0.878208
0.475506
0.029038
-0.564087
-0.859171
-0.951871
-0.615413
-0.150454
0.374194
0.745149
0.942792
0.827910
0.289192
-0.222432
-0.644604
-0.826806
-0.818909
-0.476582
0.001155
0.552340
0.853735
0.907610
0.492213
0.087881
-0.401301
-0.785424
-0.936611
-0.845831
-0.302828
0.277693
0.705892
0.891942
0.827588
0.406521
-0.111087
-0.593299
-0.968668
-0.912167
-0.696277
-0.105867
0.454558
0.780470
0.884044
0.694912
0.255877
-0.278914
-0.671068
-0.835599
-0.791559
-0.384382
0.161370
0.640887
0.944895
0.938503
0.466863
0.023920
-0.546649
-0.935685
-0.914506
-0.719684
-0.149494
0.314129
0.766140
0.954337
0.660212
0.311647
-0.187104
-0.682591
-0.991190
-0.855131
-0.533043
0.071500
0.545878
0.863016
0.903872
0.690489
0.201407
-0.456962
-0.800639
-0.918750
-0.722951
-0.280338
0.154282
0.644802
0.894974
0.823710
0.495714
-0.107604
-0.574196
-0.919296
-0.999697
-0.631001
-0.028553
0.478544
0.949572
0.902851
0.723102
0.197326
-0.275958
-0.755788
-0.888353
-0.812272
-0.416030
0.127045
0.662925
0.905362
0.788792
0.589240
-0.059882
-0.461549
-0.867979
-0.900639
-0.688923
-0.194569
0.362962
0.774859
0.855537
0.826079
0.427056
-0.306501
-0.568729
-0.967261
-0.892743
-0.461973
-0.035656
0.570883
0.812138
0.910570
0.662809
0.136520
-0.438696
-0.824014
-0.915913
-0.736757
-0.221230
0.271645
0.683037
0.932600
0.000683
-0.020204
0.074404
-0.032058
-0.004533
-0.037345
-0.013579
0.136307
-0.024211
-0.017416
0.075554
-0.132664
-0.073734
-0.067433
0.063994
-0.017454
-0.007813
0.012012
-0.002764
0.064944
-0.070677
-0.014797
-0.018719
0.021950
-0.104866
0.171840
0.002816
-0.012312
0.095315
-0.068791
-0.022187
-0.032273
0.033970
0.039268
0.032818
0.021151
-0.031501
-0.085372
0.073034
0.029381
-0.017765
0.026082
0.011303
0.036010
0.044942
0.009058
0.066911
-0.037749
-0.063807
0.046518
0.086915
0.089610
0.053203
0.007440
0.034815
0.033877
-0.003001
-0.074964
-0.061986
0.091989
0.052961
-0.006727
-0.018854
0.054151
0.037099
0.033140
-0.006375
-0.015690
0.084711
0.035144
0.079002
-0.068464
0.023312
0.032223
0.072255
-0.065917
-0.022779
-0.006336
0.051337
0.014239
-0.057894
0.050835
0.103729
0.000487
0.035830
0.057832
0.028515
0.034092
0.019881
0.072533
0.066943
-0.060573
-0.098705
0.035677
-0.069734
0.045883
-0.004607
-0.049853
-0.012474
-0.007631
0.013834
0.469935
0.767235
0.782663
0.713023
0.233174
-0.274848
-0.745826
-0.932853
-0.845282
-0.422403
0.089162
0.594119
0.919945
0.928691
0.656673
0.159341
-0.367311
-0.800293
-0.890155
-0.746848
-0.286125
0.257874
0.670714
0.828844
0.906076
0.526693
-0.010089
-0.596023
-0.785791
-0.914794
-0.836874
-0.284668
0.238710
0.749529
0.906636
0.744472
0.458788
-0.069793
-0.581073
-0.851215
-0.879771
-0.605350
-0.118762
0.398761
0.919000
0.995320
0.752166
0.400546
-0.203515
-0.660363
-0.884809
-0.898816
-0.495698
0.023006
0.468233
0.858134
0.952381
0.741179
0.265310
-0.225098
-0.590772
-0.863056
-0.830764
-0.420967
0.179899
0.574546
0.892168
0.942895
0.628194
0.163062
-0.419793
-0.663203
-1.007934
-0.890818
-0.422660
0.047977
0.638314
1.017914
0.864691
0.568140
0.028947
-0.448735
-0.800511
-0.945158
-0.732780
-0.282736
0.285896
0.702911
0.983362
0.833579
0.521614
0.027726
-0.479060
-0.856099
-0.911234
-0.698992
-0.290314
0.316403
0.703516
0.950072
0.773718
0.372514
-0.173070
-0.648232
-0.875407
-0.941417
-0.719102
-0.069469
0.479794
0.810881
0.921639
0.813191
0.300508
-0.243672
-0.737111
-0.911180
-0.844470
-0.539824
0.040439
0.599258
0.840798
0.827839
0.728626
0.134925
-0.255747
-0.728783
-0.941144
-0.844614
-0.437880
0.035319
0.589160
0.885907
0.928149
0.616952
0.162800
-0.447634
-0.857053
-0.951711
-0.767435
-0.311976
0.206362
0.747349
0.886982
0.944328
0.580106
-0.020536
-0.520550
-0.857341
-0.980928
-0.784547
-0.312473
0.294569
0.752828
0.936223
0.927062
0.312265
-0.112554
-0.633529
-0.859307
-0.771318
-0.628044
-0.141468
0.322346
0.863577
0.949271
0.766933
0.349669
-0.207746
-0.598747
-0.877885
-0.852689
-0.612866
-0.070689
0.375188
0.868980
0.955656
0.752850
0.270564
-0.316669
-0.658495
-0.930220
-0.850982
-0.461219
-0.061350
0.624377
0.859715
0.887432
0.658424
0.202098
-0.290187
-0.812772
-0.965305
-0.685087
-0.332598
0.144440
0.505703
0.978011
0.893818
0.571694
0.061025
-0.455814
-0.750557
-0.882980
-0.721124
-0.253662
0.241878
0.591240
0.822960
0.887690
0.526793
-0.068711
-0.507349
-0.922396
-1.008815
-0.676119
-0.169749
0.305169
0.725695
0.906028
0.795745
0.455742
-0.120740
-0.624507
-0.846869
-0.906389
-0.572796
-0.039802
0.443581
0.807011
0.940806
0.741278
0.332842
-0.176318
-0.705121
-0.953273
-0.869120
-0.467909
0.096887
0.503437
0.836958
0.946610
0.737500
0.215862
-0.238326
-0.793158
-0.954265
-0.846345
-0.515706
0.025550
0.634513
0.849577
0.907435
0.539803
0.137361
-0.398501
-0.816793
-0.894050
-0.699522
-0.292238
0.121023
0.587413
0.958674
0.947877
0.587076
0.011491
-0.484810
-0.823931
-0.929640
-0.642731
-0.303194
0.277862
0.710166
0.884346
0.848153
0.469492
-0.112519
-0.568836
-0.771148
-0.839015
-0.644834
-0.171989
0.433576
0.725545
0.961768
0.770421
0.411098
-0.151884
-0.637890
-0.960733
-0.804924
-0.662488
-0.065457
0.615356
0.811882
0.961866
0.833657
0.308051
-0.246672
-0.730386
-0.930790
-0.863288
-0.496254
0.066686
0.533972
0.876001
0.875225
0.649652
0.229481
-0.210005
-0.736701
-0.925380
-0.740950
-0.322195
0.100162
0.632619
0.938616
0.882372
0.548836
0.110679
-0.448938
-0.825040
-0.904111
-0.707426
-0.322012
0.319092
0.707270
0.873118
0.857895
0.527212
-0.050525
-0.536576
-0.933850
-0.785710
-0.657386
-0.181366
0.293598
0.751767
1.018474
0.757944
0.361368
-0.099906
-0.590574
-0.828308
-0.840496
-0.657549
-0.162862
0.479117
0.761349
1.029698
0.776052
0.302828
-0.178263
-0.612892
-0.969594
-0.852180
-0.524073
-0.027073
0.518335
0.827126
0.844450
0.706058
0.216546
-0.234852
-0.655599
-0.963491
-0.861638
-0.484219
0.059096
0.480917
0.862659
0.829563
0.575240
0.123230
-0.393870
-0.827485
-0.896914
-0.692728
-0.370080
0.220435
0.663808
0.963609
0.862950
0.528040
0.104772
-0.516875
-0.810145
-0.850141
-0.699361
-0.237017
0.271057
0.662822
0.955734
0.775227
0.458453
-0.033218
-0.528710
-0.872320
-0.936154
-0.684898
-0.077234
0.341353
0.758553
0.847404
0.741128
0.375886
-0.166822
-0.627724
-0.894804
-0.848461
-0.540148
-0.165287
0.484057
0.876531
0.889365
0.762049
0.172661
-0.165096
-0.600333
-0.961990
-0.818588
-0.444578
-0.007374
0.547832
0.831593
0.795516
0.646739
0.193048
-0.302957
-0.838338
-0.905327
-0.778639
-0.419719
0.153001
0.565329
0.889470
0.911637
0.481791
0.039805
-0.510750
-0.801872
-0.874635
-0.768471
-0.266657
0.291526
0.624985
0.871881
0.886944
0.471618
-0.030152
-0.482549
-0.765181
-0.899422
-0.693505
-0.179326
0.369225
0.795622
0.987492
0.846524
0.415273
-0.113377
-0.602812
-0.960083
-0.903047
-0.554091
-0.135784
0.391288
0.824999
0.865583
0.691585
0.360194
-0.169178
-0.608201
-0.868597
-0.876077
-0.428744
0.067418
0.414179
0.832816
0.887084
0.750389
0.223276
-0.355767
-0.702674
-0.975340
-0.834131
-0.334862
0.053658
0.557385
0.808774
0.951391
0.623668
0.117136
-0.386003
-0.775348
-0.901381
-0.771545
-0.323172
0.157155
0.610962
0.922268
0.797637
0.518639
-0.017230
-0.531019
-0.785810
-0.870677
-0.846048
-0.218818
0.224237
0.616799
0.909703
0.883537
0.436032
0.062070
-0.593285
-0.891145
-0.850136
-0.575665
-0.107824
0.296295
0.782387
0.925575
0.843966
0.311947
-0.255816
-0.619766
-0.804369
-1.000165
-0.666883
-0.081903
0.551906
0.811385
0.947744
0.715097
0.303800
-0.243801
-0.697363
-0.911928
-0.887868
-0.478236
0.027422
0.521851
0.843700
0.880085
0.647137
0.107166
-0.361213
-0.890700
-0.965227
-0.758412
-0.338924
0.101510
0.687955
0.996901
0.861722
0.519329
0.089843
-0.372929
-0.915586
-0.857670
-0.712134
-0.191913
0.143394
0.732807
0.902027
0.847100
0.602024
-0.011128
-0.507834
-0.899751
-0.971615
-0.739678
-0.250589
0.208393
0.748674
0.951643
0.720131
0.379094
-0.036066
-0.617652
-0.961794
-0.833022
-0.509437
-0.128746
0.435110
0.867642
0.997987
0.696356
0.324776
-0.271486
-0.703301
-0.934723
-0.808501
-0.600747
0.050567
0.455425
0.915829
0.910892
0.686764
0.211323
-0.391406
-0.724854
-0.957560
-0.713839
-0.422367
0.061614
0.547299
0.807860
0.956102
0.611413
0.107604
-0.411140
-0.824249
-0.921162
-0.709777
-0.365697
0.133516
0.662667
0.903668
0.810126
0.402982
0.076181
-0.482635
-0.845967
-0.911264
-0.668397
-0.338742
0.296564
0.735366
0.777672
0.801854
0.495382
-0.024972
-0.622621
-0.905134
-0.899921
-0.666924
-0.188357
0.285113
0.799250
0.827443
0.804168
0.387607
-0.085869
-0.633664
-0.909686
-0.821445
-0.548222
0.014892
0.396958
0.847088
0.930837
0.705977
0.253396
-0.340846
-0.693742
-0.819039
-0.834760
-0.474955
0.032474
0.583766
0.841511
0.857883
0.669163
0.298796
-0.400068
-0.722077
-0.978046
-0.779042
-0.406879
0.023889
0.542627
0.938645
0.782745
0.673041
0.075740
-0.399189
-0.801578
-0.899029
-0.671997
-0.316194
0.214243
0.717190
0.969946
0.807880
0.476329
0.002029
-0.468698
-0.918943
-0.915967
-0.640166
-0.298865
0.247537
0.687892
0.944932
0.743030
0.444733
-0.087738
-0.574886
-0.915053
-0.969302
-0.654368
-0.113957
0.445510
0.776024
0.951650
0.779456
0.271218
-0.210205
-0.687070
-0.849946
-0.868718
-0.557103
0.015746
0.479284
0.880410
0.895825
0.702436
0.166932
-0.265239
-0.768992
-0.931369
-0.877106
-0.441750
0.112774
0.537421
0.929902
0.861677
0.638515
0.173601
-0.382460
-0.814264
-0.969320
-0.783026
-0.241959
0.163418
0.623026
0.910876
0.874738
0.591890
0.146910
-0.477021
-0.900177
-0.934390
-0.647477
-0.221551
0.290744
0.821768
0.980656
0.793279
0.374274
-0.108699
-0.426977
-0.788816
-0.897151
-0.565662
-0.117012
0.334408
0.782229
0.894880
0.711641
0.432378
-0.158496
-0.656981
-0.878294
-0.820217
-0.530011
-0.107735
0.547305
0.854296
0.923331
0.684762
0.229249
-0.288941
-0.736364
-0.881010
-0.875277
-0.552986
-0.044311
0.508714
0.893211
0.899958
0.648951
0.202945
-0.342911
-0.701150
-0.929562
-0.753519
-0.380593
0.114797
0.650642
0.972547
0.912817
0.582804
0.066061
-0.372051
-0.756158
-0.967448
-0.725349
-0.288007
0.278525
0.699350
0.996652
0.761317
0.392930
0.006244
-0.457056
-0.814795
-0.944066
-0.619951
-0.228149
0.180564
0.717702
0.880614
0.708887
0.383897
-0.137683
-0.476253
-0.908020
-0.864023
-0.633126
-0.160691
0.320445
0.853805
0.883257
0.793199
0.263942
-0.247511
-0.635054
-0.923006
-0.899258
-0.534490
-0.066063
0.473840
0.888794
0.931381
0.662179
0.281044
-0.306679
-0.732688
-0.934325
-0.813190
-0.435010
-0.047220
0.561389
0.856296
0.848692
0.673468
0.202121
-0.422991
-0.800153
-0.902559
-0.772827
-0.416687
0.224156
0.590448
0.979769
0.894274
0.544188
0.008208
-0.539016
-0.863092
-0.936466
-0.624471
-0.330682
0.290260
0.716613
0.985016
0.769098
0.487512
-0.076795
-0.572559
-0.882729
-0.961389
-0.618657
-0.201218
0.376977
0.785339
0.926883
0.749484
0.436149
-0.014189
-0.641723
-0.967263
-0.913742
-0.522462
-0.075273
0.378764
0.882931
0.937135
0.766156
0.227243
-0.306076
-0.612477
-0.949594
-0.885211
-0.501939
0.036539
0.478332
0.935666
0.890433
0.648910
0.250776
-0.326728
-0.796239
-0.830365
-0.682892
-0.393667
0.105674
0.516380
0.977117
0.869053
0.515553
0.098430
-0.470606
-0.835901
-0.954997
-0.680775
-0.279023
0.229679
0.738741
0.858333
0.848929
0.509135
0.016137
-0.536939
-0.823856
-0.917692
-0.648621
-0.180460
0.335155
0.789224
0.916867
0.831081
0.366874
-0.121822
-0.512190
-0.915974
-0.953531
-0.585092
-0.153976
0.393033
0.822757
0.972593
0.764298
0.322530
-0.019365
-0.061483
-0.067038
-0.020038
-0.047150
-0.022180
-0.011375
0.004010
-0.041742
-0.048167
0.096858
-0.030948
-0.018245
-0.018616
0.096142
0.045397
-0.045516
-0.077168
0.082347
-0.007336
-0.018012
0.038975
-0.020579
-0.070944
-0.023062
0.073072
0.012733
-0.004167
0.005850
0.128705
-0.000915
0.046423
0.032451
-0.039585
0.055746
-0.006322
0.000285
0.022856
0.036262
-0.031161
-0.043518
-0.023517
-0.027645
-0.119028
-0.033025
0.085495
-0.109735
-0.034871
0.028594
0.009614
-0.065274
-0.040332
0.033769
-0.057656
-0.057499
-0.011812
0.090010
-0.058135
-0.089056
0.086596
-0.048526
0.025011
-0.023389
-0.042666
-0.016628
-0.040328
0.000673
-0.048484
0.114893
-0.097752
-0.019075
-0.077260
0.071228
0.128143
-0.027727
-0.005761
0.042318
-0.077181
0.021641
-0.010718
0.005903
0.064451
0.004184
-0.038108
-0.000659
-0.045654
0.026214
-0.056875
-0.002705
0.064592
-0.085466
-0.106208
-0.018777
0.042526
0.041845
-0.044269
0.022899
0.071223
0.025688
-0.049976
-0.014095
0.506595
0.846468
0.902546
0.658864
0.274079
-0.229908
-0.602755
-0.992089
-0.893540
-0.547086
-0.031038
0.446899
0.874934
0.891457
0.780976
0.164085
-0.293462
-0.723009
-0.816538
-0.865489
-0.547194
0.028669
0.403126
0.793466
0.801706
0.676424
0.290278
-0.183688
-0.645700
-0.876083
-0.815845
-0.604104
-0.094967
0.445341
0.777842
0.872118
0.739001
0.359996
-0.138176
-0.560862
-0.943226
-0.824177
-0.488811
-0.033384
0.443249
0.721190
0.886760
0.706155
0.296457
-0.199197
-0.528014
-0.906423
-0.909946
-0.476901
-0.075027
0.471029
0.805750
0.917776
0.733143
0.379035
-0.107056
-0.674520
-0.818850
-0.872309
-0.549309
-0.136122
0.437180
0.865230
0.935061
0.883196
0.385958
-0.152497
-0.530434
-0.796435
-0.969542
-0.618779
-0.207373
0.323816
0.717011
0.887026
0.754004
0.360363
-0.102975
-0.657973
-0.853308
-0.873657
-0.601506
-0.156592
0.325725
0.761114
0.830984
0.768706
0.434512
-0.061130
-0.502598
-0.775898
-0.948829
-0.617980
-0.161441
0.274609
0.741237
0.944835
0.837854
0.486953
-0.046207
-0.516283
-0.871728
-0.831685
-0.604913
-0.145923
0.283656
0.693653
0.786055
0.865545
0.433704
-0.023067
-0.427528
-0.827200
-0.852631
-0.775830
-0.215853
0.212944
0.729118
0.847096
0.887424
0.481050
0.063982
-0.380021
-0.773801
-0.889385
-0.741676
-0.197142
0.362017
0.677803
0.823219
0.785356
0.532236
0.075319
-0.490504
-0.759941
-0.835600
-0.670504
-0.262757
0.249734
0.636368
0.820851
0.882567
0.555295
0.079954
-0.490368
-0.785201
-0.918184
-0.693742
-0.341914
0.215546
0.598680
0.906027
0.789386
0.601281
0.106577
-0.434963
-0.810529
-0.926984
-0.685098
-0.282044
0.187790
0.579096
0.913896
0.952686
0.593249
0.014705
-0.361939
-0.711814
-0.854657
-0.827713
-0.330315
0.155194
0.644448
0.841077
0.891021
0.550958
0.113140
-0.395669
-0.758256
-0.915041
-0.881314
-0.390754
0.087901
0.582404
0.873535
0.829046
0.537261
0.204199
-0.356447
-0.792238
-0.898313
-0.828241
-0.360494
0.162330
0.562090
0.737510
0.868736
0.630865
0.261796
-0.251900
-0.744096
-0.817678
-0.774476
-0.478323
0.059752
0.510607
0.833779
1.009981
0.682229
0.201955
-0.316961
-0.738713
-0.929114
-0.767454
-0.465426
0.024049
0.529695
0.781099
0.871494
0.680837
0.171579
-0.351476
-0.690160
-0.859128
-0.855580
-0.433371
0.068951
0.502175
0.902264
0.905371
0.680135
0.237443
-0.226665
-0.618041
-0.837417
-0.774781
-0.573000
-0.024362
0.500103
0.787021
0.872530
0.637692
0.208002
-0.244817
-0.728230
-0.976420
-0.842595
-0.588954
0.025356
0.460380
0.728453
0.958524
0.684650
0.344790
-0.240231
-0.644139
-0.828313
-0.792890
-0.510091
-0.063700
0.462670
0.806072
0.918117
0.769001
0.422441
-0.186900
-0.672581
-0.913141
-0.942350
-0.477102
-0.110174
0.420333
0.891256
0.946052
0.739390
0.248188
-0.253778
-0.596685
-0.829834
-0.861756
-0.581237
-0.041377
0.386444
0.748324
0.906364
0.653810
0.334745
-0.227476
-0.729421
-0.902123
-0.883087
-0.563273
-0.146427
0.354500
0.776289
0.949171
0.795183
0.363602
-0.138812
-0.637236
-0.905408
-0.821440
-0.599760
-0.157404
0.371521
0.710851
0.824668
0.772887
0.433313
-0.208200
-0.535582
-0.890720
-0.828065
-0.626402
-0.144157
0.419266
0.794531
0.850117
0.737009
0.354619
-0.117230
-0.457449
-0.955776
-0.881808
-0.742089
-0.189450
0.346896
0.744847
0.859799
0.750476
0.463591
-0.026395
-0.509453
-0.933491
-0.833021
-0.630715
-0.192420
0.296217
0.714551
0.831250
0.788105
0.492468
-0.029121
-0.565543
-0.873200
-0.896159
-0.661838
-0.126808
0.261592
0.733275
0.897192
0.775439
0.456247
0.037926
-0.579079
-0.864306
-0.953179
-0.582404
-0.336985
0.287391
0.662365
0.894783
0.898276
0.425024
0.085746
-0.476809
-0.813370
-0.935112
-0.563233
-0.212044
0.101633
0.755989
0.956627
0.772287
0.597256
-0.032923
-0.435054
-0.767262
-0.797494
-0.678940
-0.294493
0.162566
0.610442
0.900387
0.724787
0.494518
0.055373
-0.429031
-0.868798
-0.929649
-0.729750
-0.329990
0.248768
0.713556
0.796080
0.797911
0.469965
0.142684
-0.359587
-0.814704
-0.979199
-0.756120
-0.258170
0.183533
0.704039
0.878545
0.910849
0.551865
0.109583
-0.417271
-0.754858
-0.834176
-0.808021
-0.313225
0.146571
0.631582
0.883776
0.844730
0.522851
0.074572
-0.410801
-0.820316
-0.902780
-0.785866
-0.351510
0.114209
0.586411
0.867857
0.848114
0.536946
0.192361
-0.347126
-0.699924
-0.819920
-0.823410
-0.415118
0.089376
0.403690
0.919541
0.795939
0.721590
0.146463
-0.407110
-0.778599
-0.900688
-0.699932
-0.433672
0.071239
0.657191
0.879618
0.898454
0.582930
0.168500
-0.263103
-0.791299
-0.968441
-0.829509
-0.411539
-0.052093
0.502159
0.824130
0.855924
0.605043
0.146341
-0.289472
-0.682505
-0.995232
-0.905894
-0.450926
-0.005064
0.535068
0.881599
0.953840
0.687044
0.187332
-0.336150
-0.737204
-0.894113
-0.845661
-0.395633
-0.045719
0.547697
0.783719
0.795458
0.626989
0.257094
-0.271932
-0.637104
-0.871677
-0.821138
-0.490262
0.013582
0.454399
0.878995
0.831423
0.676819
0.267709
-0.299528
-0.645860
-0.930325
-0.845701
-0.530369
-0.007692
0.485196
0.743057
0.838000
0.725273
0.252588
-0.249684
-0.669923
-0.873715
-0.831793
-0.509672
0.002871
0.489869
0.772816
0.866520
0.602477
0.249522
-0.202425
-0.539647
-0.915912
-0.856504
-0.549761
-0.112651
0.287467
0.840832
0.976237
0.866842
0.324724
-0.207352
-0.640970
-0.810931
-0.855592
-0.518140
-0.163345
0.318486
0.763596
0.846239
0.824970
0.448706
-0.101867
-0.543993
-0.943491
-0.827465
-0.546991
-0.124258
0.423817
0.769639
0.853143
0.783036
0.464664
-0.150909
-0.531784
-0.873295
-0.822289
-0.577540
-0.227191
0.344965
0.818847
0.887833
0.881976
0.392008
-0.047761
-0.581443
-0.943693
-0.880744
-0.638983
-0.216729
0.314233
0.739728
0.963672
0.810993
0.473016
-0.152747
-0.573522
-0.866725
-0.954760
-0.650419
-0.078955
0.255511
0.670335
0.989081
0.780588
0.390971
-0.113869
-0.461665
-0.815308
-0.958860
-0.684039
-0.181206
0.368250
0.730181
0.890877
0.836311
0.492001
-0.008563
-0.508153
-0.841148
-0.886676
-0.762075
-0.222696
0.235828
0.691223
0.915066
0.757181
0.479300
-0.064368
-0.462263
-0.793728
-0.887315
-0.641794
-0.285464
0.300214
0.689170
0.760289
0.859052
0.492295
0.022937
-0.484021
-0.744138
-0.862186
-0.636629
-0.294118
0.188589
0.673136
0.914647
0.867963
0.616254
0.101036
-0.412009
-0.867329
-0.835081
-0.712128
-0.318225
0.203999
0.771797
0.813750
0.857456
0.640429
0.086444
-0.381050
-0.903154
-0.919003
-0.750595
-0.299340
0.153688
0.612876
0.854445
0.870890
0.518959
0.100394
-0.398257
-0.741090
-0.841452
-0.682170
-0.371000
0.191604
0.639002
0.840640
0.801370
0.502006
0.150053
-0.447651
-0.702024
-1.027456
-0.809364
-0.377719
0.229285
0.639759
0.845435
0.926357
0.648496
0.116005
-0.457070
-0.698613
-0.874924
-0.768624
-0.361943
0.084681
0.615759
0.867312
0.872821
0.601997
0.097535
-0.412932
-0.819838
-0.960430
-0.872784
-0.441610
0.091587
0.519475
0.854425
1.008726
0.720643
0.140412
-0.392758
-0.827095
-0.814547
-0.876355
-0.481189
-0.001950
0.616615
0.858694
0.821458
0.614014
0.149811
-0.276386
-0.758135
-0.841368
-0.859864
-0.503650
-0.025424
0.647541
0.871017
0.889074
0.643341
0.196213
-0.264460
-0.653059
-0.949401
-0.821721
-0.474056
-0.070879
0.470277
0.885982
0.860208
0.683647
0.292986
-0.245401
-0.660287
-0.927418
-0.887705
-0.461569
-0.020497
0.529344
0.836345
0.944588
0.670200
0.227030
-0.307018
-0.711716
-1.005657
-0.892141
-0.512002
-0.113160
0.482227
0.908779
0.945043
0.760138
0.350365
-0.202045
-0.626842
-0.891195
-0.785382
-0.581202
-0.009392
0.368954
0.791216
0.918656
0.798038
0.336045
-0.188425
-0.612813
-0.888614
-0.708902
-0.674381
-0.116987
0.438356
0.791140
0.944649
0.817075
0.455683
-0.179449
-0.579666
-0.829346
-0.843041
-0.584365
-0.057514
0.397674
0.785258
0.917607
0.809435
0.337470
-0.109863
-0.666458
-0.851407
-0.827256
-0.563727
-0.126683
0.332887
0.791231
0.952716
0.750910
0.498396
-0.098574
-0.561888
-0.827734
-0.836581
-0.606523
-0.118635
0.419828
0.780800
0.884319
0.766578
0.433890
-0.143456
-0.601574
-0.842230
-0.955733
-0.620402
-0.182730
0.304557
0.761337
0.973241
0.778600
0.442347
-0.054222
-0.598275
-0.830417
-0.906035
-0.591276
-0.186964
0.360156
0.706162
0.890133
0.833328
0.455587
-0.094649
-0.593800
-0.876285
-0.791183
-0.683396
-0.210503
0.230192
0.616423
0.832473
0.768674
0.390217
-0.004236
-0.492688
-0.899340
-0.869320
-0.654259
-0.230011
0.295708
0.686580
0.848564
0.828048
0.410629
-0.006704
-0.629662
-0.833612
-0.903879
-0.633870
-0.374979
0.216605
0.651751
0.850731
0.899128
0.475814
0.023059
-0.522570
-0.931713
-0.920748
-0.682902
-0.213297
0.283548
0.638949
0.804011
0.780005
0.543081
0.033626
-0.506482
-0.722296
-0.852353
-0.771219
-0.274658
0.226681
0.609474
0.900384
0.804046
0.524032
-0.111888
-0.374739
-0.732575
-0.853398
-0.699627
-0.284648
0.133079
0.677073
0.844087
0.749608
0.504594
0.106859
-0.384844
-0.743016
-0.978831
-0.725578
-0.263855
0.138727
0.654206
0.860512
0.851443
0.544776
0.061073
-0.299469
-0.776352
-0.885704
-0.784239
-0.366779
0.043024
0.666056
0.928904
0.896051
0.592434
0.050814
-0.489517
-0.806228
-0.921744
-0.791760
-0.362969
0.039165
0.529422
0.903698
0.852945
0.563411
0.162295
-0.389795
-0.813408
-0.873616
-0.779676
-0.470197
0.128677
0.557605
0.882925
0.986488
0.671020
0.260893
-0.255150
-0.721144
0.120883
0.043774
-0.011291
0.037163
-0.064690
0.024054
0.027364
0.014169
-0.032525
0.075367
0.045293
-0.034227
-0.012443
-0.008115
0.018304
0.004095
0.027301
0.088703
-0.032189
0.018618
-0.035208
-0.016783
0.038339
-0.014950
-0.039253
-0.082936
-0.009447
-0.022177
0.043250
0.015942
0.048825
-0.026232
-0.026797
0.019070
-0.020101
0.026231
0.001564
0.073133
-0.083245
-0.059465
0.051036
0.022713
-0.006707
-0.034753
0.083567
0.001984
-0.020138
-0.000659
-0.034085
-0.078447
-0.059991
-0.042351
-0.020472
0.009206
0.031071
0.015117
0.041508
0.066594
-0.046669
0.057489
0.072001
0.025311
-0.066343
0.025117
-0.029934
-0.027976
0.020399
0.016536
-0.009221
-0.031459
-0.072348
0.013224
-0.019998
-0.016284
0.033180
0.017908
-0.058123
-0.041265
-0.076262
-0.023268
0.038202
0.024253
-0.020400
0.017526
0.018973
0.008458
0.016715
-0.008440
-0.052163
-0.034022
-0.052200
0.095250
-0.054760
0.039340
0.045425
-0.016967
-0.000844
-0.019569
0.020860
-0.061282
-0.008329
0.452937
0.757175
0.892450
0.744590
0.264281
-0.089131
-0.615485
-0.883105
-0.861611
-0.598512
-0.192497
0.290619
0.694879
0.973701
0.739248
0.369610
0.006920
-0.493478
-0.814095
-0.961662
-0.623800
-0.214492
0.255629
0.659405
0.879331
0.816071
0.536006
0.011415
-0.419896
-0.735505
-0.860834
-0.673408
-0.325016
0.093700
0.482146
0.850652
0.890516
0.621614
0.159223
-0.303465
-0.643526
-0.906418
-0.803326
-0.438360
-0.062640
0.470518
0.734173
0.799033
0.801757
0.238176
-0.074026
-0.541661
-0.817051
-0.823741
-0.633101
-0.130608
0.269360
0.589564
0.900439
0.921899
0.471096
0.024641
-0.377004
-0.699243
-0.941423
-0.700790
-0.278704
0.162943
0.635351
0.781634
0.839292
0.564955
0.123209
-0.307181
-0.695744
-0.840172
-0.760211
-0.508016
0.052216
0.600221
0.764078
0.906019
0.729244
0.238827
-0.236947
-0.557610
-0.760183
-0.838089
-0.565254
-0.165107
0.284285
0.719919
0.908874
0.830544
0.453244
-0.115318
-0.648382
-0.865293
-0.903566
-0.573791
-0.215482
0.230150
0.659707
0.875878
0.845165
0.524382
0.079929
-0.340963
-0.709014
-0.925296
-0.754391
-0.393313
0.074836
0.489334
0.789134
0.882906
0.677724
0.181698
-0.311970
-0.680167
-0.853033
-0.811202
-0.481122
-0.051142
0.458258
0.697840
0.903546
0.802612
0.321808
-0.117559
-0.522370
-0.848943
-0.799871
-0.584160
-0.182768
0.379314
0.676484
0.928606
0.806659
0.409608
0.023405
-0.459960
-0.752136
-0.857100
-0.808605
-0.243112
0.120088
0.545026
0.830646
0.821953
0.597481
0.110638
-0.401005
-0.689935
-0.838517
-0.843392
-0.453590
0.079497
0.522998
0.791221
0.896634
0.786069
0.245508
-0.242306
-0.639529
-0.909075
-0.817231
-0.504985
-0.232033
0.386588
0.783460
0.943723
0.824745
0.333144
-0.066415
-0.528796
-0.748909
-0.884212
-0.655325
-0.240952
0.304483
0.676945
0.874106
0.847489
0.576570
0.049369
-0.334362
-0.761780
-0.944334
-0.792993
-0.372736
0.075697
0.738046
0.812187
0.927823
0.652754
0.138945
-0.266101
-0.709564
-0.857409
-0.839247
-0.446505
-0.046134
0.475693
0.899478
0.898492
0.685491
0.380010
-0.128854
-0.618287
-0.873179
-0.816321
-0.654599
-0.144268
0.305815
0.773648
0.923620
0.743206
0.483474
0.074628
-0.417182
-0.827147
-0.866426
-0.719860
-0.313460
0.190673
0.592266
0.887603
0.783152
0.593030
0.154293
-0.381813
-0.696386
-0.916069
-0.754068
-0.445108
0.097537
0.567968
0.798001
0.798751
0.718889
0.155147
-0.303230
-0.616324
-0.867323
-0.894814
-0.622346
-0.105447
0.379980
0.789261
0.935006
0.723948
0.435064
-0.121513
-0.571225
-0.873855
-0.803662
-0.695165
-0.253666
0.277351
0.637431
0.925366
0.908412
0.516020
0.130404
-0.483417
-0.768258
-0.868154
-0.687838
-0.378040
0.139887
0.655003
0.740651
0.813803
0.574415
0.110399
-0.385676
-0.578486
-0.848721
-0.812255
-0.474685
0.023557
0.422291
0.795123
0.901335
0.698122
0.341751
-0.167873
-0.503499
-0.907388
-0.845631
-0.612166
-0.073063
0.287394
0.664004
0.796020
0.823534
0.429158
0.003343
-0.419037
-0.827682
-0.932597
-0.649809
-0.240412
0.234433
0.647139
0.881824
0.750899
0.535926
0.104332
-0.428545
-0.682205
-0.879192
-0.716696
-0.407089
0.125410
0.476198
0.879655
0.871769
0.703685
0.318336
-0.175159
-0.614300
-0.855147
-0.677278
-0.496838
-0.095264
0.398839
0.699311
0.891050
0.755237
0.409116
-0.123299
-0.543568
-0.884988
-0.895793
-0.638585
-0.246290
0.291116
0.706494
0.920974
0.735713
0.480784
0.024487
-0.437375
-0.709713
-0.842326
-0.705678
-0.344851
0.090133
0.577624
0.930783
0.875795
0.538500
0.104803
-0.372890
-0.704670
-0.839174
-0.857337
-0.352826
-0.019388
0.457746
0.777054
0.925888
0.763898
0.258665
-0.118314
-0.688608
-0.871500
-0.816197
-0.573415
-0.218309
0.299303
0.684800
0.878399
0.808156
0.369245
-0.098476
-0.567464
-0.815189
-0.885423
-0.710986
-0.292319
0.343056
0.749684
0.936808
0.865437
0.513396
0.188707
-0.445359
-0.690883
-0.824147
-0.738573
-0.395687
0.138952
0.457822
0.868823
0.887551
0.578696
0.259291
-0.255311
-0.640186
-0.970126
-0.832601
-0.417960
0.000651
0.380887
0.772382
0.931317
0.711965
0.370244
-0.134386
-0.562371
-0.788994
-0.785016
-0.719429
-0.132773
0.314550
0.707376
0.948767
0.737861
0.435707
-0.008028
-0.360313
-0.805584
-0.838578
-0.702845
-0.454106
0.131755
0.629878
0.821104
0.818771
0.563047
0.107060
-0.338707
-0.657121
-0.860755
-0.784595
-0.422588
0.015725
0.487452
0.877118
0.932452
0.676197
0.218075
-0.139582
-0.670944
-0.962996
-0.828284
-0.534083
-0.249829
0.464737
0.778930
0.859694
0.769691
0.374017
-0.153082
-0.527715
-0.821567
-0.906702
-0.650926
-0.257333
0.274812
0.677338
0.847128
0.879646
0.537794
0.053036
-0.414182
-0.836639
-0.942464
-0.798484
-0.412772
0.122529
0.557996
0.891941
0.959128
0.590828
0.270940
-0.267939
-0.655238
-0.855291
-0.883633
-0.504982
-0.117097
0.510672
0.817498
0.934894
0.691443
0.420172
-0.126541
-0.683777
-0.852101
-0.879003
-0.521124
-0.112202
0.209964
0.647693
0.916660
0.805166
0.451453
-0.030839
-0.448815
-0.756679
-0.943236
-0.742689
-0.345410
0.155810
0.615217
0.885749
0.799831
0.497912
0.159113
-0.360895
-0.684362
-0.799709
-0.825771
-0.388200
-0.001305
0.510072
0.834289
0.945904
0.730684
0.236245
-0.209972
-0.676232
-0.824820
-0.885284
-0.498817
-0.045682
0.404285
0.713693
0.953041
0.772049
0.304115
-0.139071
-0.658130
-0.889089
-0.888771
-0.682525
-0.193239
0.327653
0.632481
0.853353
0.773938
0.538531
0.065782
-0.398121
-0.716894
-0.926512
-0.757025
-0.366624
0.109424
0.582035
0.903736
0.877957
0.669629
0.227889
-0.318990
-0.722958
-0.862596
-0.838727
-0.535738
0.001658
0.378578
0.784132
0.985073
0.711635
0.323783
-0.160683
-0.606003
-0.851654
-0.853286
-0.645433
-0.132162
0.344562
0.717408
0.823655
0.739937
0.494735
0.015029
-0.521403
-0.801263
-0.825230
-0.784139
-0.246115
0.172909
0.661074
0.892253
0.831764
0.534834
0.191607
-0.373194
-0.672109
-0.845409
-0.776395
-0.536395
0.088763
0.478783
0.793131
0.867658
0.618798
0.219444
-0.228972
-0.542727
-0.884983
-0.793764
-0.575371
-0.109099
0.409143
0.810043
0.828714
0.679195
0.356173
-0.075556
-0.554169
-0.831648
-0.814055
-0.644833
-0.145455
0.282019
0.719982
0.882719
0.794708
0.526333
0.046766
-0.469440
-0.793967
-0.930862
-0.764199
-0.325108
0.110085
0.476269
0.861775
0.837220
0.597242
0.116363
-0.304464
-0.729890
-0.821925
-0.790154
-0.475744
0.044556
0.372022
0.792569
0.920074
0.692529
0.359607
-0.199565
-0.650635
-0.803085
-0.849890
-0.538471
-0.129520
0.302455
0.725492
0.895625
0.781392
0.368162
0.009029
-0.473800
-0.831499
-0.954085
-0.617088
-0.314495
0.224852
0.731207
0.871798
0.817349
0.495555
0.084775
-0.394854
-0.798604
-0.804368
-0.737648
-0.422164
0.095384
0.521730
0.801425
0.858505
0.638188
0.314844
-0.159514
-0.705766
-1.028740
-0.784022
-0.527145
-0.090800
0.330433
0.708744
0.835357
0.727772
0.365158
-0.147003
-0.628525
-0.796688
-0.853561
-0.529656
-0.194189
0.262690
0.668627
0.890690
0.804472
0.445276
-0.069798
-0.463458
-0.734668
-0.872764
-0.721924
-0.379750
0.050631
0.571220
0.822180
0.815817
0.582101
0.052098
-0.348919
-0.662355
-0.870681
-0.763470
-0.476740
0.099510
0.554033
0.865983
0.882340
0.763102
0.269105
-0.266422
-0.542899
-0.884079
-0.687887
-0.567675
-0.076233
0.373473
0.757683
0.820329
0.705362
0.350253
-0.038687
-0.604753
-0.776374
-0.879093
-0.652097
-0.331477
0.195591
0.662825
0.939314
0.802534
0.489110
0.032721
-0.402937
-0.775931
-0.964627
-0.736363
-0.379895
0.084463
0.512140
0.849802
0.858636
0.623279
0.214326
-0.256957
-0.658293
-0.895334
-0.843878
-0.514742
-0.028159
0.414330
0.767002
0.916757
0.684860
0.329301
-0.143078
-0.662535
-0.862584
-0.832569
-0.547314
-0.192026
0.272578
0.631313
0.913907
0.807577
0.471394
-0.051061
-0.515615
-0.791929
-0.843664
-0.650373
-0.330797
0.153079
0.675010
0.779279
0.832110
0.561972
0.103874
-0.276207
-0.765257
-0.893372
-0.748140
-0.524323
0.094301
0.449708
0.723745
0.892072
0.677113
0.329127
-0.228814
-0.624573
-0.897118
-0.836267
-0.528168
-0.103884
0.351828
0.792429
0.830441
0.801146
0.342184
-0.092803
-0.553979
-0.799076
-0.817796
-0.716023
-0.208913
0.269212
0.737922
0.857260
0.905827
0.564781
0.081803
-0.390103
-0.742435
-0.867420
-0.655094
-0.399993
0.095952
0.656284
0.896149
0.900566
0.603787
0.191636
-0.342855
-0.572976
-0.800905
-0.857758
-0.516626
-0.025562
0.440883
0.763451
1.024727
0.765209
0.270528
-0.179587
-0.653039
-0.870384
-0.922238
-0.602546
-0.113932
0.309784
0.754437
0.837773
0.794098
0.411790
-0.054325
-0.472274
-0.857061
-0.874930
-0.716656
-0.276866
0.119146
0.637145
0.900557
0.858691
0.548075
0.074369
-0.372829
-0.684418
-0.822012
-0.743451
-0.408181
0.204115
0.472851
0.804225
0.836866
0.708830
0.243555
-0.276695
-0.595920
-0.814461
-0.772170
-0.457265
-0.113992
0.353663
0.775753
0.899074
0.904514
0.425422
-0.065415
-0.591076
-0.864121
-0.810267
-0.586968
-0.222637
0.372437
0.696066
0.892434
0.838564
0.601594
0.097851
-0.439666
-0.673122
-0.962240
-0.707156
-0.431673
0.148496
0.492298
0.878318
0.928665
0.648837
0.202341
-0.214974
-0.754111
-0.842242
-0.735159
-0.510692
-0.055387
0.436788
0.864734
0.815741
0.668726
0.261834
-0.174857
-0.567695
-0.880511
-0.861434
-0.606599
-0.129552
0.360962
0.751600
0.856360
0.824203
0.454743
-0.107587
-0.534267
-0.812671
-0.901818
-0.686575
-0.005860
-0.031640
0.093623
0.057368
0.026016
-0.042602
0.061550
-0.048982
0.069605
-0.039470
-0.045241
0.023382
0.100399
-0.024732
-0.018265
-0.132292
-0.033243
0.055108
0.050351
-0.088958
-0.080757
0.073617
-0.009803
-0.028439
-0.031887
-0.007534
-0.018390
-0.013530
-0.045619
0.017164
0.034952
-0.040748
0.093265
0.042857
-0.021769
0.007416
-0.022941
0.027356
-0.082862
0.040871
-0.057811
-0.008177
-0.047520
-0.053119
0.025638
0.012861
0.039288
0.010558
0.047687
0.031017
0.083803
0.077503
0.075037
0.019979
-0.009291
-0.030164
0.000891
-0.006976
0.003613
0.009491
-0.065332
0.047218
-0.008379
-0.090415
0.036014
0.071069
-0.026468
0.013789
0.119798
0.054886
-0.088384
0.090268
-0.080943
-0.057186
0.025636
-0.007492
0.045228
0.025955
0.025035
-0.055372
0.005783
-0.041208
-0.035081
-0.018379
0.050841
-0.055218
-0.015998
-0.060705
0.023926
-0.032356
0.080189
0.029376
-0.002128
0.034251
0.014383
-0.056292
0.076697
0.001456
0.091521
-0.019761
0.062670
0.428034
0.706773
0.896632
0.706116
0.338860
-0.133554
-0.458695
-0.846635
-0.782123
-0.662934
-0.174145
0.224029
0.737385
0.867553
0.776049
0.462942
0.091040
-0.259930
-0.716097
-0.816207
-0.749013
-0.442133
0.032891
0.430665
0.797587
0.810882
0.845837
0.329815
-0.133551
-0.523398
-0.851261
-0.881154
-0.605958
-0.356232
0.226423
0.671082
0.797384
0.768295
0.490157
0.148202
-0.304350
-0.737585
-0.812041
-0.703364
-0.494988
-0.071392
0.390566
0.766142
0.904159
0.695216
0.410654
-0.033967
-0.502634
-0.838616
-0.909048
-0.639521
-0.326207
0.143723
0.502095
0.746504
0.817015
0.609335
0.205984
-0.338607
-0.706068
-0.791194
-0.770082
-0.504702
-0.075266
0.356293
0.733856
0.921852
0.736712
0.415382
-0.041759
-0.488615
-0.864398
-0.897784
-0.652987
-0.339203
0.132025
0.533467
0.849472
0.956049
0.607136
0.143127
-0.320311
-0.672464
-0.748180
-0.769467
-0.462557
-0.106974
0.287862
0.800540
0.887360
0.797658
0.523444
-0.093832
-0.494539
-0.753755
-0.867808
-0.617105
-0.397915
0.028392
0.564393
0.842821
0.878852
0.628209
0.265560
-0.213669
-0.637804
-0.864079
-0.837529
-0.575694
-0.099518
0.399610
0.690618
0.855638
0.770333
0.485619
0.049495
-0.373005
-0.666381
-0.858367
-0.750662
-0.315832
0.038077
0.578943
0.839598
0.830041
0.593892
0.202440
-0.203734
-0.671464
-0.940089
-0.842684
-0.587205
-0.043327
0.264662
0.688422
0.844433
0.848430
0.494171
-0.037904
-0.414371
-0.708926
-0.900280
-0.748486
-0.330165
0.038730
0.498741
0.761042
0.855457
0.680432
0.350790
-0.181687
-0.647444
-0.851850
-0.841647
-0.615126
-0.104864
0.258122
0.712305
0.795617
0.823547
0.507834
-0.013530
-0.382486
-0.707904
-0.914225
-0.681158
-0.438024
0.117535
0.407902
0.866539
0.821529
0.727374
0.312300
-0.136301
-0.570028
-0.865724
-0.861326
-0.667923
-0.210616
0.245540
0.638478
0.763057
0.674360
0.528361
0.034987
-0.363271
-0.731259
-0.872853
-0.704357
-0.427197
0.040965
0.466522
0.879072
0.906589
0.702425
0.286780
-0.135434
-0.479776
-0.842180
-0.826341
-0.630362
-0.230571
0.260650
0.708139
0.894674
0.913345
0.561106
0.076995
-0.266410
-0.589412
-0.767987
-0.767914
-0.407780
-0.028241
0.434831
0.735976
0.852270
0.765753
0.411788
-0.153149
-0.634937
-0.878975
-0.868467
-0.599165
-0.248139
0.206871
0.626548
0.775250
0.846456
0.598531
0.107647
-0.345742
-0.691676
-0.957729
-0.851828
-0.451213
-0.019685
0.376594
0.594849
0.932825
0.667208
0.392787
-0.187317
-0.647667
-0.817415
-0.875596
-0.695643
-0.279264
0.229348
0.686850
0.767276
0.741745
0.548643
0.151488
-0.256185
-0.766334
-0.915122
-0.804442
-0.503953
0.017793
0.428729
0.735835
0.840863
0.732115
0.421698
-0.119823
-0.535074
-0.779786
-0.879254
-0.600853
-0.322181
0.278679
0.650496
0.805063
0.816684
0.671800
0.198528
-0.294809
-0.630876
-0.804823
-0.923892
-0.557461
-0.061622
0.446802
0.691486
0.826390
0.736112
0.469402
0.013336
-0.442879
-0.740418
-0.934439
-0.711623
-0.346132
0.081955
0.588328
0.732971
0.806544
0.587159
0.166206
-0.321556
-0.729481
-0.859719
-0.824364
-0.501988
-0.124010
0.281785
0.745156
0.820437
0.802333
0.415931
-0.001346
-0.484073
-0.809836
-0.932528
-0.755762
-0.395182
0.169490
0.523864
0.813993
0.825941
0.670720
0.243240
-0.256648
-0.602932
-0.930857
-0.750498
-0.525388
-0.160597
0.430287
0.642228
0.878980
0.671007
0.490679
0.018312
-0.439405
-0.801273
-0.776208
-0.703665
-0.377246
0.086075
0.509987
0.763708
0.852474
0.653280
0.324059
-0.165878
-0.533069
-0.872980
-0.903861
-0.590283
-0.100138
0.262061
0.673569
0.912505
0.902064
0.481663
0.079096
-0.483096
-0.688086
-0.874450
-0.753718
-0.287734
0.089252
0.524516
0.806360
0.877694
0.676341
0.286629
-0.275650
-0.588695
-0.839134
-0.924593
-0.584987
-0.177270
0.295782
0.696318
0.848027
0.818331
0.469922
0.035127
-0.399515
-0.736489
-0.717240
-0.752654
-0.438617
0.008025
0.408040
0.747037
0.907488
0.682587
0.324469
-0.103821
-0.589743
-0.800273
-0.808596
-0.625005
-0.178223
0.224311
0.614899
0.840724
0.747982
0.526643
0.103509
-0.332089
-0.616690
-0.866673
-0.754452
-0.427693
-0.025589
0.526753
0.712364
0.860574
0.736595
0.333303
-0.224836
-0.534764
-0.792245
-0.814603
-0.681615
-0.151056
0.247594
0.541422
0.839064
0.865744
0.521290
0.144049
-0.338540
-0.696041
-0.921151
-0.811934
-0.383392
-0.016269
0.486735
0.615227
0.876141
0.738159
0.349232
-0.067500
-0.598181
-0.803360
-0.855361
-0.570386
-0.244631
0.257955
0.587701
0.934801
0.795718
0.514216
0.266578
-0.372076
-0.710201
-0.805093
-0.767542
-0.452435
-0.054924
0.361780
0.777072
0.847525
0.685913
0.397403
-0.081151
-0.443153
-0.846792
-0.854702
-0.742976
-0.383318
0.112388
0.541530
0.836184
0.832683
0.524122
0.161198
-0.300533
-0.644913
-0.854100
-0.720975
-0.474551
-0.126261
0.421610
0.700983
0.908213
0.807376
0.429496
-0.183093
-0.482625
-0.726490
-0.866962
-0.677539
-0.290159
0.120413
0.639137
0.786041
0.941390
0.558415
0.209904
-0.288200
-0.676377
-0.773706
-0.829286
-0.414710
-0.092286
0.357864
0.653395
0.935591
0.798986
0.389380
-0.085078
-0.496602
-0.758582
-0.821030
-0.673099
-0.326843
0.155752
0.557202
0.877171
0.859420
0.616412
0.210836
-0.374211
-0.630730
-0.877739
-0.752132
-0.526503
-0.040432
0.312268
0.632498
0.878749
0.693965
0.398126
0.030116
-0.389598
-0.801504
-0.856452
-0.676844
-0.266969
0.107148
0.562769
0.898044
0.813271
0.690294
0.283177
-0.173248
-0.661314
-0.889134
-0.764948
-0.562574
-0.159008
0.272421
0.708148
0.864469
0.835058
0.571900
0.079328
-0.407240
-0.782299
-0.925451
-0.656175
-0.310745
0.060122
0.570500
0.817977
0.875740
0.651020
0.375979
-0.252740
-0.518578
-0.884210
-0.795168
-0.544288
-0.166127
0.296593
0.723873
0.823329
0.833567
0.458372
0.097247
-0.461553
-0.810365
-0.771899
-0.684005
-0.376064
0.078028
0.478693
0.788317
0.858355
0.609344
0.310854
-0.222352
-0.663411
-0.788205
-0.864020
-0.696935
-0.169481
0.287656
0.651187
0.960745
0.831516
0.546011
-0.023262
-0.291426
-0.788994
-0.876016
-0.712382
-0.496435
0.045628
0.539629
0.841438
0.758648
0.682243
0.308283
-0.128353
-0.634394
-0.752972
-0.982907
-0.771405
-0.310048
0.261146
0.605475
0.929257
0.709652
0.513547
0.127290
-0.368590
-0.766235
-0.874050
-0.845459
-0.339962
0.018886
0.450631
0.754400
0.898501
0.692399
0.354765
-0.214440
-0.566911
-0.941413
-0.826783
-0.635445
-0.210596
0.283473
0.594983
0.827415
0.752122
0.584390
0.122542
-0.223282
-0.725152
-0.851452
-0.830236
-0.421104
-0.011874
0.495371
0.723093
0.920578
0.589284
0.334539
-0.003198
-0.579286
-0.851275
-0.818454
-0.715569
-0.232500
0.197794
0.661771
0.814075
0.775284
0.596761
0.159285
-0.287266
-0.680334
-0.902010
-0.748821
-0.366642
-0.091043
0.493949
0.768416
0.951257
0.715818
0.294735
-0.048889
-0.511538
-0.840137
-0.844379
-0.690030
-0.296388
0.216071
0.590812
0.838513
0.829225
0.654661
0.138642
-0.261482
-0.617870
-0.911098
-0.792000
-0.513603
-0.060666
0.494162
0.807825
0.886457
0.789003
0.497164
0.035685
-0.524729
-0.729751
-0.806670
-0.635049
-0.287298
0.090729
0.575594
0.832607
0.832114
0.572173
0.186649
-0.331653
-0.699323
-0.895892
-0.771679
-0.445883
-0.133402
0.496792
0.693883
0.934576
0.810806
0.522268
-0.029674
-0.489010
-0.774690
-0.921508
-0.664413
-0.300643
0.080889
0.560226
0.806849
0.854411
0.596276
0.184738
-0.255678
-0.577257
-0.856114
-0.732858
-0.531332
-0.113528
0.213644
0.698238
0.891549
0.705429
0.443862
0.011271
-0.369823
-0.800555
-0.795863
-0.653659
-0.356711
-0.013824
0.549110
0.860088
0.879109
0.641500
0.332529
-0.292527
-0.546202
-0.879130
-0.848635
-0.551138
-0.107022
0.437144
0.732208
0.831120
0.788783
0.506828
0.017330
-0.525596
-0.712432
-0.829596
-0.758203
-0.373904
0.119062
0.526081
0.771836
0.852912
0.611621
0.295685
-0.178801
-0.624302
-0.760621
-0.787260
-0.620881
-0.198226
0.348261
0.651176
0.818627
0.831336
0.495246
0.093098
-0.435595
-0.807552
-0.890954
-0.739507
-0.384939
0.074246
0.511912
0.821160
0.849617
0.740186
0.199322
-0.205965
-0.543154
-0.798125
-0.793753
-0.565203
-0.163082
0.320948
0.741221
0.904834
0.768698
0.555174
0.032583
-0.476887
-0.757456
-0.782840
-0.808761
-0.400904
0.066799
0.548297
0.859496
0.884097
0.594506
0.301137
-0.079895
-0.601055
-0.757794
-0.880203
-0.678048
-0.201644
0.318272
0.716889
0.862230
0.788528
0.469292
0.141964
-0.352407
-0.693672
-0.827003
-0.838666
-0.501097
-0.039996
0.489480
0.828117
0.990435
0.706055
0.325567
-0.085123
-0.530120
-0.835363
-0.885336
-0.581149
-0.171932
0.181540
0.731233
0.957289
0.854546
0.550412
0.162203
-0.358418
-0.712712
-0.903078
-0.838450
-0.453459
-0.072535
0.489094
0.749318
0.864581
0.668816
0.324721
-0.157675
-0.683728
-0.812776
-0.882631
-0.664028
-0.283308
0.241134
0.626095
0.836302
0.835335
0.528352
0.091391
-0.322986
-0.674635
-0.767957
-0.741996
-0.372456
-0.024104
0.392523
0.799008
0.792906
0.727783
0.347770
-0.119465
-0.505893
-0.744161
-0.774954
-0.645676
-0.288951
0.154117
0.625732
0.858901
0.920044
0.606859
0.186792
-0.352508
-0.589166
-0.809470
-0.790246
-0.514906
-0.103462
0.386301
0.755609
0.970227
0.660445
0.467933
-0.162575
-0.473096
-0.757926
-0.750640
-0.636121
-0.247716
0.100852
0.568097
0.845051
0.860913
0.574754
0.177149
-0.215828
-0.546004
-0.882727
-0.756820
-0.482472
-0.168171
0.362261
0.014513
-0.046196
-0.088172
-0.008489
0.051682
0.035278
-0.076624
-0.057759
0.016185
0.065045
-0.017196
0.077208
0.031292
-0.047971
0.105962
0.031017
0.086760
0.093481
-0.052136
-0.040465
0.078558
0.010542
-0.108546
0.011354
0.041727
-0.051260
0.003360
-0.027427
-0.014624
0.057216
-0.006719
0.088651
0.061837
0.043109
-0.029960
-0.020243
0.024391
0.073263
0.025321
-0.013691
0.021648
0.014724
-0.022187
-0.015421
-0.037406
0.023073
0.095992
0.007564
-0.029416
0.050851
-0.037187
-0.028858
0.091907
0.024450
0.027996
0.009532
0.062599
-0.030527
-0.003839
0.014947
0.008491
0.032658
0.003881
-0.004520
0.045235
0.043532
0.006233
0.007160
-0.067768
-0.013279
-0.062697
0.052466
0.026174
0.012251
0.036309
0.001072
0.017059
0.004329
-0.024176
0.035031
-0.011273
-0.008427
-0.039532
-0.072185
-0.056728
0.040239
0.024755
0.025492
0.054465
0.008449
-0.082757
-0.059506
0.060781
0.096844
-0.031204
-0.030874
-0.018620
-0.036538
-0.012116
-0.063237
0.001068
0.388732
0.668241
0.834190
0.653661
0.321051
-0.140038
-0.546660
-0.792611
-0.838888
-0.674051
-0.298662
0.073966
0.529801
0.738591
0.918193
0.605586
0.309964
-0.133359
-0.582278
-0.842199
-0.895783
-0.724326
-0.302989
0.195005
0.564660
0.807660
0.863530
0.606560
0.203784
-0.294202
-0.546903
-0.756143
-0.756387
-0.499918
-0.077130
0.240725
0.643753
0.786017
0.816570
0.487220
0.032881
-0.348647
-0.642928
-0.834499
-0.787024
-0.483778
-0.074440
0.402034
0.685655
0.844595
0.694574
0.545003
0.004106
-0.361112
-0.759309
-0.910114
-0.723263
-0.515652
0.062339
0.502645
0.730216
0.881926
0.566966
0.366099
-0.098583
-0.342832
-0.825414
-0.826372
-0.758334
-0.298091
0.099636
0.546272
0.836587
0.760872
0.680718
0.289066
-0.222817
-0.571580
-0.924629
-0.832488
-0.540164
-0.299371
0.241599
0.507053
0.825860
0.808442
0.656783
0.113086
-0.218760
-0.574793
-0.835955
-0.771556
-0.458139
-0.057485
0.271870
0.706283
0.819797
0.791537
0.530767
0.143809
-0.379319
-0.697074
-0.948963
-0.744609
-0.365241
0.010619
0.293919
0.741062
0.914476
0.703997
0.363934
-0.067141
-0.554209
-0.742400
-0.819797
-0.745125
-0.276691
0.037697
0.517235
0.872931
0.753157
0.678525
0.292641
-0.064843
-0.612768
-0.794609
-0.858487
-0.697918
-0.255096
0.188910
0.577835
0.748726
0.723384
0.589145
0.286415
-0.278961
-0.516009
-0.844340
-0.786179
-0.565914
-0.187773
0.362839
0.588945
0.784971
0.828567
0.435858
0.193328
-0.295444
-0.737322
-0.914521
-0.749248
-0.466688
-0.108740
0.399320
0.637369
0.886263
0.761722
0.403631
0.020928
-0.457256
-0.786003
-0.775827
-0.733328
-0.458714
0.063507
0.426771
0.792060
0.871125
0.685205
0.312046
-0.061748
-0.551443
-0.755782
-0.861685
-0.775734
-0.278725
0.112083
0.661897
0.750751
0.770119
0.601660
0.240342
-0.147783
-0.548002
-0.754511
-0.826553
-0.620018
-0.276162
0.194030
0.653439
0.772068
0.921284
0.577614
0.251597
-0.204356
-0.649624
-0.873135
-0.849935
-0.483771
-0.134633
0.408574
0.732248
0.807782
0.775352
0.501016
0.041492
-0.354303
-0.713157
-0.851326
-0.743191
-0.383925
-0.022176
0.333511
0.650131
0.901589
0.744323
0.412321
0.022254
-0.381945
-0.790911
-0.892197
-0.729164
-0.341714
0.068427
0.517331
0.732234
0.794550
0.699897
0.296411
-0.172420
-0.529984
-0.828909
-0.829213
-0.662596
-0.312582
0.138321
0.605395
0.808201
0.786694
0.604697
0.307436
-0.184811
-0.581765
-0.882568
-0.758814
-0.571206
-0.194968
0.162963
0.581035
0.731246
0.831752
0.565805
0.114782
-0.296212
-0.638946
-0.717413
-0.864119
-0.597774
-0.057203
0.257708
0.666807
0.725219
0.819804
0.478786
0.069982
-0.333329
-0.715127
-0.797805
-0.783046
-0.438253
0.026319
0.459244
0.661151
0.860389
0.755316
0.412534
0.007008
-0.467649
-0.712716
-0.805523
-0.748886
-0.372301
0.028619
0.509825
0.875471
0.801907
0.736720
0.338833
-0.069360
-0.542829
-0.752605
-0.819257
-0.714043
-0.182833
0.155371
0.537605
0.849800
0.843106
0.548541
0.237621
-0.165736
-0.659726
-0.865096
-0.837247
-0.589960
-0.096419
0.252996
0.585862
0.885083
0.790004
0.596849
0.024052
-0.446526
-0.631980
-0.797737
-0.716493
-0.475750
-0.057686
0.351360
0.760880
0.733812
0.728077
0.450880
0.015748
-0.387911
-0.706177
-0.872140
-0.787026
-0.486724
0.066998
0.436572
0.785421
0.812531
0.730392
0.391992
-0.022165
-0.416341
-0.710789
-0.874441
-0.636840
-0.365094
0.106982
0.559716
0.851277
0.822717
0.652030
0.231506
-0.161063
-0.570380
-0.811979
-0.811255
-0.625263
-0.197576
0.225737
0.663412
0.904919
0.843961
0.513872
0.153137
-0.157345
-0.700456
-0.776331
-0.737642
-0.462976
-0.127959
0.308161
0.621514
0.818880
0.802960
0.514696
0.163994
-0.324243
-0.639495
-0.871222
-0.748158
-0.438249
0.010054
0.435139
0.639862
0.833335
0.698736
0.535220
-0.026143
-0.390097
-0.826535
-0.904146
-0.713561
-0.269681
-0.012743
0.445696
0.742345
0.936667
0.710957
0.390738
-0.095738
-0.538747
-0.891374
-0.842370
-0.641411
-0.272757
0.095411
0.573316
0.793561
0.816243
0.666434
0.228643
-0.226183
-0.583042
-0.845582
-0.817268
-0.561265
-0.189363
0.220184
0.675189
0.750923
0.683936
0.540826
0.154961
-0.289492
-0.669705
-0.804374
-0.745715
-0.469419
-0.056766
0.290666
0.777992
0.847320
0.667218
0.477783
0.130813
-0.409965
-0.727046
-0.936688
-0.788194
-0.366633
0.018658
0.507029
0.806162
0.865802
0.754112
0.385061
-0.052998
-0.484913
-0.787639
-0.849984
-0.678785
-0.379242
0.097450
0.510117
0.736913
0.783564
0.662710
0.331768
-0.161977
-0.536204
-0.764311
-0.875321
-0.731725
-0.234697
0.187358
0.575306
0.803197
0.821877
0.605073
0.208806
-0.226245
-0.641366
-0.841763
-0.842834
-0.555934
-0.162447
0.263760
0.709655
0.794959
0.780715
0.565688
0.071687
-0.327712
-0.721064
-0.816028
-0.825208
-0.491436
-0.041093
0.305013
0.777642
0.918788
0.665692
0.391405
-0.010525
-0.496535
-0.782514
-0.811427
-0.634083
-0.335025
0.031884
0.488279
0.786918
0.852955
0.711062
0.291701
-0.116953
-0.463549
-0.804400
-0.835245
-0.660739
-0.373450
0.144194
0.605268
0.742443
0.847854
0.614777
0.257932
-0.226707
-0.598720
-0.759185
-0.818426
-0.606234
-0.198944
0.144666
0.570621
0.916777
0.807483
0.545265
0.152691
-0.291120
-0.597723
-0.877039
-0.847302
-0.562096
-0.095037
0.395284
0.667667
0.825760
0.797056
0.439738
0.115622
-0.347307
-0.669250
-0.878264
-0.872372
-0.465479
-0.066167
0.440925
0.758254
0.929890
0.652402
0.382862
-0.004288
-0.475424
-0.822571
-0.760325
-0.667469
-0.282745
0.106415
0.550162
0.834374
0.828434
0.655495
0.312706
-0.148632
-0.652560
-0.754857
-0.774128
-0.622795
-0.251546
0.142804
0.563742
0.794240
0.887748
0.621571
0.204636
-0.224827
-0.640686
-0.797760
-0.816036
-0.632438
-0.189988
0.291980
0.637049
0.805956
0.789712
0.607871
0.065800
-0.343926
-0.721961
-0.840781
-0.799560
-0.429728
-0.064246
0.376225
0.759423
0.916977
0.710348
0.509111
0.014608
-0.496666
-0.727640
-0.822835
-0.764886
-0.410487
0.180591
0.383312
0.752221
0.907258
0.709048
0.369617
-0.040422
-0.416926
-0.804926
-0.848863
-0.652936
-0.411101
0.079411
0.527250
0.831343
0.912545
0.686265
0.192964
-0.172444
-0.601294
-0.700296
-0.773066
-0.643996
-0.209917
0.202982
0.635049
0.908587
0.836136
0.619988
0.199817
-0.217226
-0.692815
-0.855895
-0.835763
-0.553109
-0.107737
0.378298
0.671853
0.845417
0.789539
0.542063
0.085610
-0.354101
-0.717067
-0.821839
-0.749583
-0.391420
0.021417
0.423209
0.739705
0.839498
0.691833
0.421704
0.037348
-0.552192
-0.748711
-0.908632
-0.808213
-0.365458
0.074114
0.421500
0.753187
0.872143
0.701377
0.377094
-0.140852
-0.534031
-0.763256
-0.920877
-0.727013
-0.273878
0.083790
0.628695
0.790464
0.779788
0.702341
0.188777
-0.119915
-0.609480
-0.806544
-0.889470
-0.535399
-0.256086
0.258638
0.597860
0.813523
0.798322
0.620145
0.269443
-0.255548
-0.687116
-0.824795
-0.713443
-0.520303
-0.151835
0.345180
0.747305
0.755707
0.864416
0.406951
-0.015756
-0.421239
-0.624350
-0.838578
-0.712680
-0.531716
0.055355
0.393980
0.727348
0.821423
0.746502
0.383011
0.046921
-0.545277
-0.756029
-0.828856
-0.654063
-0.409169
0.060864
0.454939
0.824304
0.840750
0.706276
0.287765
-0.235638
-0.530098
-0.867458
-0.840097
-0.716073
-0.243560
0.271318
0.609583
0.739271
0.846759
0.518097
0.280509
-0.322435
-0.542070
-0.780943
-0.789703
-0.600373
-0.153410
0.261881
0.597389
0.771945
0.788266
0.501996
0.184642
-0.354690
-0.736383
-0.744140
-0.782318
-0.522212
-0.093861
0.326915
0.677942
0.831783
0.743435
0.431147
-0.035013
-0.473008
-0.802243
-0.882650
-0.699466
-0.389310
-0.020680
0.483296
0.800629
0.862433
0.622521
0.250643
-0.091730
-0.489663
-0.852644
-0.824375
-0.713477
-0.304066
0.153827
0.620001
0.731868
0.850027
0.610228
0.302478
-0.181277
-0.637876
-0.805426
-0.801968
-0.640929
-0.264435
0.163488
0.649053
0.825724
0.931993
0.664734
0.159606
-0.346070
-0.643375
-0.757355
-0.937083
-0.550332
-0.109769
0.276844
0.632322
0.861712
0.790170
0.453902
0.099672
-0.337140
-0.717060
-0.891160
-0.780857
-0.456109
0.013048
0.338492
0.717781
0.921834
0.677675
0.399702
-0.013151
-0.479566
-0.768247
-0.862115
-0.650908
-0.452335
0.064551
0.520125
0.768909
0.767037
0.687717
0.344088
-0.122625
-0.481807
-0.842972
-0.764341
-0.662541
-0.232535
0.166259
0.513582
0.822086
0.845933
0.685527
0.264866
-0.304432
-0.647589
-0.828578
-0.819105
-0.584864
-0.193104
0.277423
0.661068
0.808369
0.863256
0.598649
0.099826
-0.316742
-0.664827
-0.900183
-0.820019
-0.644359
-0.023297
0.272372
0.676586
0.837902
0.746558
0.502727
0.030526
-0.360823
-0.722843
-0.892006
-0.806568
-0.496357
0.056386
0.496978
0.753795
0.826546
0.753628
0.393669
-0.083904
-0.440189
-0.702570
-0.865601
-0.747556
-0.338542
0.038275
0.510867
0.828615
0.825096
0.614785
0.302020
-0.095560
-0.569676
-0.791149
-0.797199
-0.603040
-0.232563
0.221699
0.632221
0.863843
0.815594
0.569579
0.152566
-0.264467
-0.639294
-0.758264
-0.802631
-0.538654
-0.160050
0.355440
0.672176
0.913717
0.756295
0.440491
0.102562
-0.336830
-0.702311
-0.874619
-0.782943
-0.493451
-0.062978
0.388360
0.767253
0.884353
0.719840
0.389206
0.061530
-0.436630
-0.703585
-0.921859
-0.687398
-0.407581
-0.021121
0.522721
0.706019
0.843261
0.663170
0.326946
-0.123737
-0.526942
-0.764482
-0.915261
-0.679371
-0.305376
0.068389
0.570015
0.892174
0.885058
0.009948
-0.026619
-0.016647
0.014640
-0.004647
0.009107
-0.051341
0.010372
-0.029315
0.007257
-0.066987
-0.045957
0.047264
-0.069009
0.039466
0.002502
0.058761
-0.135941
-0.015265
-0.007439
-0.104104
0.012461
-0.012244
-0.067026
0.000640
0.033843
-0.013246
0.059125
-0.019732
0.002407
-0.035562
0.044579
0.114087
-0.035136
0.015929
0.098797
-0.012297
-0.047736
-0.054645
-0.091343
-0.045153
0.009941
0.027686
-0.061674
-0.123596
0.028030
-0.068017
-0.026579
0.053963
-0.018368
-0.029348
-0.047923
-0.057825
0.013440
0.024413
0.025999
-0.007547
-0.061045
0.023910
-0.012243
-0.081434
-0.031149
-0.016569
0.022510
-0.011480
0.027023
0.056487
0.053050
-0.067834
-0.015240
-0.066638
0.004929
-0.043387
-0.057788
0.001434
0.020687
0.017034
-0.060860
-0.004443
-0.016707
0.043048
0.085522
-0.008895
0.052820
0.006258
0.024875
-0.024053
0.075751
-0.079519
0.029385
-0.026504
0.015588
-0.006294
-0.042772
0.022887
0.136773
0.006909
-0.043802
-0.019895
0.057166
0.056139
0.406813
0.716250
0.875029
0.674222
0.356208
0.065851
-0.441364
-0.729902
-0.878276
-0.729941
-0.450051
-0.050089
0.326876
0.701161
0.906251
0.833554
0.370083
0.085951
-0.370324
-0.690150
-0.784268
-0.702223
-0.521476
-0.014155
0.356333
0.646571
0.741412
0.819400
0.443798
0.140034
-0.404452
-0.632703
-0.872755
-0.747618
-0.543221
-0.042611
0.415102
0.589717
0.759853
0.816016
0.475734
0.085465
-0.337886
-0.758353
-0.787864
-0.723592
-0.610891
-0.044283
0.346393
0.717604
0.815387
0.794727
0.500816
0.059049
-0.285726
-0.663132
-0.827833
-0.694456
-0.526474
-0.122227
0.266651
0.672522
0.885714
0.773391
0.514634
0.136625
-0.284327
-0.697498
-0.743947
-0.774759
-0.502732
-0.094476
0.290265
0.657052
0.781795
0.700046
0.548577
0.188357
-0.311576
-0.633379
-0.925438
-0.755244
-0.504226
-0.101872
0.293635
0.580339
0.849439
0.770726
0.534218
0.174232
-0.278898
-0.554625
-0.795331
-0.782271
-0.521545
-0.085593
0.319309
0.681597
0.759810
0.791630
0.633030
0.251506
-0.197475
-0.684474
-0.833706
-0.718150
-0.621816
-0.166173
0.108927
0.443987
0.708366
0.864066
0.472606
0.164870
-0.253397
-0.507181
-0.835554
-0.769074
-0.596614
-0.230937
0.226711
0.538650
0.787370
0.797498
0.578051
0.200609
-0.137269
-0.558414
-0.810601
-0.729451
-0.504264
-0.257325
0.219812
0.605489
0.761468
0.817160
0.543964
0.219815
-0.164064
-0.570254
-0.801901
-0.838634
-0.687617
-0.370643
0.120205
0.577730
0.821529
0.788237
0.659686
0.269152
-0.131818
-0.470103
-0.854628
-0.778820
-0.596485
-0.325871
0.085440
0.510394
0.804076
0.844434
0.675180
0.273474
-0.106817
-0.508695
-0.766926
-0.805030
-0.689138
-0.285558
0.120574
0.516082
0.803260
0.872991
0.631445
0.325459
-0.076725
-0.562509
-0.739420
-0.864499
-0.686213
-0.372613
0.065503
0.413582
0.743728
0.831115
0.727806
0.356463
-0.017211
-0.392810
-0.783093
-0.831649
-0.652529
-0.252157
0.121706
0.468195
0.734354
0.795875
0.733627
0.324717
-0.186874
-0.472946
-0.800785
-0.842681
-0.589557
-0.358514
0.003350
0.480074
0.694528
0.846356
0.750600
0.311396
-0.005788
-0.508291
-0.826622
-0.831875
-0.612099
-0.333899
0.088542
0.381631
0.759273
0.791004
0.736167
0.431719
-0.025906
-0.424968
-0.744058
-0.840843
-0.695793
-0.445455
-0.044578
0.393353
0.736764
0.855224
0.754988
0.423784
0.022776
-0.439665
-0.671211
-0.797703
-0.717517
-0.499179
-0.087567
0.417887
0.656371
0.865385
0.684957
0.405283
0.061973
-0.428516
-0.723223
-0.811670
-0.763183
-0.434229
-0.071888
0.400858
0.652210
0.830690
0.740418
0.449096
0.076750
-0.362379
-0.683249
-0.868433
-0.815866
-0.475779
-0.089810
0.373356
0.695747
0.777620
0.683340
0.544998
0.086785
-0.331323
-0.700801
-0.863981
-0.723995
-0.445170
0.064987
0.287384
0.709818
0.773891
0.729775
0.554660
0.173556
-0.370043
-0.639328
-0.819127
-0.714372
-0.460607
-0.149260
0.379107
0.763412
0.861373
0.784531
0.501787
0.104619
-0.285856
-0.694638
-0.848392
-0.728363
-0.521666
-0.171505
0.347966
0.661125
0.919625
0.773443
0.532443
0.086662
-0.327498
-0.640479
-0.785384
-0.672869
-0.497797
-0.098399
0.296313
0.621533
0.776523
0.735212
0.628061
0.183718
-0.264387
-0.721487
-0.881703
-0.820297
-0.535264
-0.079328
0.312377
0.526941
0.745609
0.797888
0.453224
0.108854
-0.208021
-0.606768
-0.743436
-0.778254
-0.626946
-0.245858
0.211973
0.575739
0.738189
0.766843
0.644776
0.218058
-0.228227
-0.656576
-0.871975
-0.840125
-0.534020
-0.201281
0.209193
0.533305
0.721912
0.804606
0.581778
0.228085
-0.206253
-0.640697
-0.764594
-0.775227
-0.529752
-0.228639
0.220976
0.583419
0.711678
0.851830
0.544359
0.177657
-0.127736
-0.428947
-0.801768
-0.820173
-0.688726
-0.300497
0.251199
0.593211
0.828601
0.817461
0.605941
0.299875
-0.111738
-0.567097
-0.738131
-0.797567
-0.662678
-0.294010
0.161192
0.557874
0.775249
0.759291
0.581988
0.350062
-0.178413
-0.528993
-0.760735
-0.759627
-0.605857
-0.259016
0.127448
0.527131
0.805087
0.838363
0.625752
0.145639
-0.092304
-0.558521
-0.732636
-0.795751
-0.619468
-0.285624
0.240270
0.499346
0.785565
0.760980
0.714802
0.391481
-0.034086
-0.469057
-0.789809
-0.875531
-0.703836
-0.326279
0.049542
0.458330
0.758841
0.713422
0.715313
0.321130
-0.050726
-0.510318
-0.767256
-0.822412
-0.614778
-0.367709
0.085683
0.471233
0.743948
0.908013
0.673899
0.424032
-0.157447
-0.423023
-0.663046
-0.791693
-0.651536
-0.415857
0.056549
0.422903
0.715984
0.876743
0.666247
0.433478
-0.048016
-0.423584
-0.775587
-0.873885
-0.776766
-0.454302
0.042647
0.435191
0.771824
0.809317
0.717771
0.482362
0.026060
-0.481969
-0.655433
-0.828015
-0.734945
-0.408867
0.061996
0.464332
0.794665
0.760937
0.730721
0.401999
0.062972
-0.343561
-0.731766
-0.794122
-0.813059
-0.458050
-0.079884
0.419088
0.619148
0.820448
0.762288
0.561178
0.090642
-0.416147
-0.768131
-0.890054
-0.725687
-0.414921
-0.113706
0.393389
0.643588
0.743455
0.735666
0.433520
0.014223
-0.374980
-0.708762
-0.738175
-0.738492
-0.439669
-0.052154
0.335089
0.654075
0.886735
0.687632
0.444315
0.030456
-0.296680
-0.670582
-0.764895
-0.655242
-0.511541
-0.108204
0.353661
0.666913
0.770352
0.757913
0.592288
0.172579
-0.338608
-0.631375
-0.796424
-0.811874
-0.425250
-0.157286
0.346677
0.630236
0.779477
0.760300
0.593720
0.135733
-0.275746
-0.597272
-0.787456
-0.725735
-0.445820
-0.157534
0.316468
0.637518
0.849238
0.810819
0.573675
0.168497
-0.238352
-0.669580
-0.772141
-0.760424
-0.603520
-0.224096
0.194126
0.541254
0.786878
0.735925
0.697054
0.199866
-0.198066
-0.545219
-0.778819
-0.822996
-0.560785
-0.162373
0.191970
0.530128
0.875146
0.813454
0.549002
0.261692
-0.350691
-0.616454
-0.875669
-0.765876
-0.529179
-0.281774
0.172104
0.630396
0.740309
0.915514
0.527679
0.259240
-0.311032
-0.615548
-0.765088
-0.777117
-0.626328
-0.247730
0.123749
0.619815
0.925606
0.840307
0.568119
0.204760
-0.247480
-0.463616
-0.749304
-0.830831
-0.700321
-0.148932
0.174479
0.572548
0.853682
0.809244
0.721524
0.255853
-0.189724
-0.525303
-0.844948
-0.711367
-0.569583
-0.240271
0.165129
0.462568
0.733941
0.802556
0.743600
0.351881
-0.192065
-0.525847
-0.855240
-0.793072
-0.704519
-0.358576
0.016469
0.592357
0.836400
0.886151
0.707297
0.311983
-0.127665
-0.432303
-0.764521
-0.830348
-0.672849
-0.317868
0.009978
0.668723
0.865210
0.848557
0.649089
0.358142
-0.077649
-0.512659
-0.689098
-0.875206
-0.768487
-0.274666
0.059996
0.543823
0.739381
0.816119
0.663287
0.360194
0.047337
-0.466164
-0.724573
-0.848334
-0.604446
-0.393656
0.053769
0.423633
0.852474
0.787872
0.646432
0.368170
-0.045905
-0.471225
-0.737975
-0.852385
-0.605467
-0.426088
0.153748
0.448466
0.776905
0.734538
0.703581
0.455771
-0.063966
-0.489257
-0.744195
-0.818999
-0.747155
-0.431802
0.023966
0.391290
0.691795
0.749446
0.711460
0.420819
0.021158
-0.420966
-0.729642
-0.781917
-0.781369
-0.417355
0.018399
0.435963
0.743352
0.751196
0.757514
0.421487
-0.006321
-0.321783
-0.775041
-0.780055
-0.679193
-0.341287
-0.060996
0.395889
0.769218
0.807742
0.851797
0.546373
0.051998
-0.420479
-0.644335
-0.886919
-0.737381
-0.500226
-0.084425
0.348126
0.746176
0.779354
0.618836
0.463470
0.050217
-0.337261
-0.652781
-0.788701
-0.721241
-0.427501
-0.071531
0.345450
0.667600
0.828718
0.725029
0.468143
0.097073
-0.345376
-0.771538
-0.806820
-0.757493
-0.458223
-0.142712
0.403065
0.544853
0.844985
0.746950
0.565867
0.127288
-0.225644
-0.648376
-0.858369
-0.700501
-0.474782
-0.168957
0.206020
0.721394
0.832572
0.784117
0.529028
0.084178
-0.317029
-0.663179
-0.749378
-0.776432
-0.604494
-0.152633
0.273903
0.702811
0.855759
0.901678
0.481220
0.179174
-0.246007
-0.755967
-0.792734
-0.821619
-0.536373
-0.101832
0.378925
0.665852
0.860536
0.780502
0.526530
0.214820
-0.255853
-0.622954
-0.734057
-0.805246
-0.586041
-0.223179
0.193517
0.570610
0.815757
0.778940
0.559772
0.181575
-0.243421
-0.543701
-0.828993
-0.799544
-0.594984
-0.206349
0.201371
0.527286
0.811838
0.794828
0.521733
0.258263
-0.174902
-0.613870
-0.834790
-0.729714
-0.599120
-0.191510
0.258356
0.607172
0.781286
0.739217
0.593391
0.197893
-0.181986
-0.641104
-0.791435
-0.930476
-0.665271
-0.271193
0.140511
0.556273
0.766905
0.683374
0.629461
0.319133
-0.206026
-0.618393
-0.795380
-0.810261
-0.773217
-0.202625
0.118300
0.568914
0.711102
0.852825
0.601659
0.308825
-0.105414
-0.535938
-0.730231
-0.781603
-0.624582
-0.281339
0.145899
0.552603
0.747941
0.815745
0.659894
0.304779
-0.094634
-0.571416
-0.803130
-0.852708
-0.651764
-0.360358
0.127640
0.413601
0.798254
0.807963
0.665685
0.256616
-0.013400
-0.456663
-0.735824
-0.859456
-0.690306
-0.346937
0.030313
0.444126
0.676703
0.782759
0.722803
0.356093
-0.006767
-0.520390
-0.760392
-0.848962
-0.681871
-0.404289
0.084473
0.492420
0.836825
0.912633
0.658633
0.449110
-0.108321
-0.451427
-0.759933
-0.815311
-0.670085
-0.408427
0.073325
0.554437
0.756367
0.797493
0.751271
0.397551
-0.021849
-0.388994
-0.724605
-0.871558
-0.727710
-0.392776
0.004364
0.365377
0.764070
0.769772
0.689195
0.382181
-0.057710
-0.405563
-0.749034
-0.794541
-0.800019
-0.457135
-0.020681
0.370434
0.723369
0.848713
0.687844
0.324938
0.073854
-0.375366
-0.741170
-0.859054
-0.800644
-0.450229
-0.059841
0.465015
0.724314
0.883202
0.739743
0.482647
0.025508
-0.005112
-0.000376
0.042556
0.005970
-0.037643
-0.032845
0.064650
0.034974
0.073701
-0.016020
-0.009202
-0.019581
0.024212
-0.029461
0.037736
0.030467
-0.098151
-0.055288
0.039356
0.103833
-0.058008
-0.004022
-0.102252
0.032821
-0.019126
0.025503
-0.024362
-0.065721
0.048653
0.014021
0.020353
0.106279
-0.033234
-0.001943
0.037214
-0.009160
0.000132
-0.013762
0.031507
-0.130939
-0.025110
0.071884
0.070257
-0.012244
0.016165
-0.004549
0.009487
0.075574
0.025102
-0.084905
-0.011369
0.051966
0.015376
-0.026327
-0.049386
0.021247
-0.017183
-0.028777
-0.046388
0.009502
0.037560
0.123493
0.047798
-0.072287
-0.026134
-0.096743
0.024911
0.047047
0.081124
-0.030249
0.019882
0.026946
0.027155
0.006498
0.037476
-0.000201
0.034871
-0.022212
0.006733
0.088288
0.046324
0.034386
-0.048212
0.001455
0.100492
-0.091453
-0.014506
0.007404
-0.012718
0.021961
0.031203
-0.010350
0.087126
-0.085841
-0.099340
0.007035
0.012414
-0.001555
0.083011
0.070018
0.079911
0.306061
0.633005
0.830508
0.703544
0.451314
0.006986
-0.334146
-0.602456
-0.806599
-0.728668
-0.432473
-0.121176
0.258991
0.582080
0.824328
0.705548
0.551077
0.235518
-0.113469
-0.573004
-0.717877
-0.865216
-0.578688
-0.229803
0.055888
0.498567
0.777880
0.820945
0.581533
0.280795
-0.041441
-0.423856
-0.745788
-0.865943
-0.710041
-0.385208
-0.068018
0.386442
0.730603
0.769810
0.757301
0.480254
0.098688
-0.369514
-0.674151
-0.759793
-0.802667
-0.524023
-0.196163
0.204700
0.540039
0.721711
0.781259
0.529522
0.237627
-0.204280
-0.537259
-0.840606
-0.837139
-0.659907
-0.284054
0.122197
0.459388
0.771314
0.763983
0.585053
0.264454
-0.055863
-0.390979
-0.717927
-0.749332
-0.701415
-0.329548
0.022469
0.420379
0.702627
0.806218
0.699235
0.496236
0.094023
-0.369062
-0.597577
-0.868498
-0.814772
-0.494085
-0.164245
0.259193
0.539482
0.830083
0.745520
0.560926
0.195439
-0.222014
-0.574281
-0.706283
-0.742991
-0.645062
-0.284017
0.102705
0.508631
0.887841
0.789589
0.612869
0.380070
-0.065435
-0.298354
-0.657479
-0.775960
-0.645568
-0.376940
-0.015689
0.359300
0.643644
0.766232
0.795240
0.481479
0.091716
-0.334072
-0.705682
-0.774029
-0.683212
-0.503878
-0.123150
0.212131
0.541897
0.796197
0.708509
0.603328
0.300629
-0.205629
-0.528235
-0.724015
-0.786628
-0.639190
-0.251302
0.219300
0.568476
0.669091
0.826487
0.634206
0.406658
-0.050686
-0.397885
-0.695681
-0.805220
-0.635019
-0.457708
-0.107266
0.384693
0.662891
0.781755
0.705250
0.428766
-0.004921
-0.298406
-0.656812
-0.760522
-0.809810
-0.435797
-0.196389
0.233699
0.612063
0.704162
0.808343
0.598231
0.147351
-0.288796
-0.427696
-0.795128
-0.763683
-0.682326
-0.238998
0.092050
0.474867
0.776017
0.765218
0.620628
0.297834
-0.038951
-0.460668
-0.700790
-0.721308
-0.737096
-0.423351
0.007965
0.341445
0.706343
0.844921
0.669774
0.545054
0.122327
-0.288312
-0.557882
-0.903431
-0.755884
-0.447335
-0.111600
0.245045
0.622549
0.787232
0.808253
0.550027
0.215911
-0.217248
-0.597429
-0.788233
-0.686754
-0.617036
-0.276084
0.071306
0.496361
0.713199
0.745390
0.603511
0.436366
-0.053846
-0.429420
-0.710407
-0.683911
-0.773408
-0.375677
-0.035827
0.379278
0.697191
0.816848
0.637707
0.415413
0.063259
-0.207865
-0.630612
-0.841379
-0.753758
-0.569461
-0.123007
0.276401
0.565897
0.746824
0.785981
0.518162
0.226719
-0.141609
-0.698339
-0.710369
-0.840329
-0.613204
-0.324123
0.083550
0.556426
0.771781
0.856874
0.708998
0.398162
-0.117205
-0.470763
-0.750698
-0.925321
-0.668828
-0.458702
-0.054363
0.421819
0.721832
0.827633
0.856285
0.393136
0.056738
-0.425267
-0.658479
-0.778407
-0.778707
-0.498210
-0.210657
0.306942
0.642003
0.768159
0.769170
0.569731
0.215318
-0.288755
-0.569466
-0.772687
-0.798525
-0.597156
-0.326129
0.123079
0.543867
0.754867
0.851356
0.683150
0.257233
-0.101447
-0.308271
-0.797200
-0.816017
-0.727378
-0.245807
-0.007332
0.360848
0.683197
0.735781
0.709522
0.462040
0.034427
-0.347034
-0.729752
-0.722612
-0.727646
-0.591983
-0.019137
0.281810
0.624575
0.737763
0.843712
0.567554
0.216775
-0.114017
-0.548532
-0.831017
-0.780065
-0.561919
-0.227735
0.165776
0.537856
0.817780
0.804282
0.672480
0.264424
-0.123273
-0.349746
-0.791826
-0.825599
-0.699328
-0.377159
-0.089517
0.338225
0.715457
0.813971
0.717139
0.459602
0.032837
-0.281314
-0.690801
-0.756636
-0.749024
-0.523730
-0.158636
0.248755
0.588564
0.756237
0.775992
0.519277
0.256505
-0.204085
-0.542026
-0.847083
-0.768932
-0.561892
-0.255555
0.204711
0.463198
0.772842
0.805629
0.729356
0.290376
-0.051644
-0.441229
-0.749253
-0.802585
-0.718034
-0.386485
0.045232
0.470762
0.627619
0.860343
0.806731
0.446992
0.093845
-0.351450
-0.630823
-0.878118
-0.713941
-0.554287
-0.145352
0.306426
0.577454
0.852861
0.826779
0.504773
0.256413
-0.210659
-0.525241
-0.763640
-0.786725
-0.618569
-0.304026
0.056413
0.409845
0.731070
0.841097
0.602172
0.289324
-0.038632
-0.506092
-0.689658
-0.795137
-0.751911
-0.453533
-0.025779
0.450197
0.708151
0.825229
0.723640
0.472448
0.054429
-0.263375
-0.749659
-0.766092
-0.718141
-0.517779
-0.074828
0.267436
0.630783
0.854463
0.821458
0.594302
0.330798
-0.280278
-0.498817
-0.796836
-0.740872
-0.545105
-0.366310
0.114958
0.555049
0.824225
0.785284
0.619765
0.370616
-0.032763
-0.428945
-0.710504
-0.757885
-0.702768
-0.480101
-0.057868
0.386452
0.626325
0.896736
0.669997
0.473146
0.091627
-0.263073
-0.646473
-0.763904
-0.804519
-0.487852
-0.042091
0.351153
0.632239
0.738534
0.779204
0.592027
0.197360
-0.244850
-0.616465
-0.752616
-0.872517
-0.572918
-0.265515
0.098209
0.501896
0.783392
0.832462
0.649098
0.311682
-0.048700
-0.449805
-0.770534
-0.809360
-0.760657
-0.323436
0.027536
0.335065
0.658831
0.863594
0.671904
0.400126
0.033391
-0.372218
-0.638659
-0.813571
-0.751146
-0.543119
-0.185001
0.185859
0.590731
0.767616
0.800283
0.542736
0.159940
-0.256260
-0.664196
-0.719851
-0.822539
-0.595052
-0.192867
0.051728
0.430787
0.787386
0.876510
0.698182
0.297913
-0.049947
-0.508648
-0.711443
-0.754009
-0.624352
-0.444938
0.017916
0.364846
0.724238
0.835707
0.754007
0.407708
0.035078
-0.270403
-0.599659
-0.831508
-0.779975
-0.552242
-0.076724
0.170133
0.547359
0.740533
0.707348
0.621785
0.183891
-0.183024
-0.600531
-0.789817
-0.730793
-0.626450
-0.203018
0.066239
0.578292
0.783489
0.855404
0.662333
0.340815
-0.097639
-0.424296
-0.680972
-0.824167
-0.682248
-0.418732
-0.016324
0.415273
0.754944
0.723567
0.709219
0.423260
0.092413
-0.326661
-0.605380
-0.854662
-0.779946
-0.502453
-0.142791
0.285022
0.622892
0.863126
0.859848
0.556317
0.213689
-0.175784
-0.561738
-0.711255
-0.847866
-0.547510
-0.202654
0.122874
0.473089
0.756010
0.776373
0.580999
0.335986
-0.102737
-0.403734
-0.698245
-0.746892
-0.735176
-0.474529
0.015845
0.474470
0.695993
0.838797
0.762232
0.439307
-0.007948
-0.333687
-0.637595
-0.741382
-0.785500
-0.456243
-0.148951
0.289434
0.568062
0.865164
0.842727
0.598902
0.184251
-0.195482
-0.607551
-0.719388
-0.817319
-0.560994
-0.339669
0.114282
0.489329
0.796377
0.722952
0.605306
0.422437
-0.082523
-0.382831
-0.648206
-0.888657
-0.620770
-0.502194
-0.003088
0.372630
0.712623
0.873269
0.757010
0.417216
0.053776
-0.331856
-0.632023
-0.823216
-0.729386
-0.463370
-0.173399
0.212809
0.662571
0.879379
0.734407
0.606354
0.230338
-0.228296
-0.489596
-0.732724
-0.873501
-0.692974
-0.221811
0.104829
0.584948
0.765419
0.761514
0.663744
0.340585
-0.068437
-0.476205
-0.686700
-0.835798
-0.710068
-0.473419
0.046927
0.387070
0.572759
0.773327
0.713517
0.456455
0.072007
-0.241138
-0.652206
-0.711655
-0.775805
-0.487992
-0.194063
0.278328
0.529071
0.855257
0.794205
0.551874
0.208796
-0.244217
-0.601793
-0.805982
-0.818046
-0.637099
-0.277806
0.153825
0.544537
0.659550
0.780354
0.647246
0.293093
-0.042376
-0.455118
-0.742234
-0.792501
-0.674047
-0.405898
-0.117469
0.372245
0.648207
0.728598
0.646825
0.426927
0.022040
-0.286509
-0.703053
-0.797672
-0.796321
-0.636482
-0.140757
0.245043
0.545477
0.749840
0.753420
0.477406
0.245472
-0.175853
-0.564406
-0.838044
-0.813600
-0.577979
-0.299380
0.123271
0.404717
0.717049
0.880480
0.648690
0.194028
-0.047293
-0.386162
-0.734696
-0.832703
-0.735383
-0.429046
-0.035263
0.400659
0.625872
0.799404
0.710909
0.406975
0.067849
-0.434572
-0.709600
-0.821677
-0.714134
-0.464690
-0.080900
0.254730
0.573397
0.702690
0.800842
0.526601
0.225960
-0.235217
-0.524487
-0.781734
-0.762796
-0.596006
-0.305450
0.076559
0.541916
0.767788
0.754716
0.673980
0.335928
-0.080091
-0.415392
-0.692651
-0.710205
-0.768961
-0.296253
-0.005695
0.409888
0.681070
0.787203
0.677800
0.446076
0.119784
-0.290690
-0.677614
-0.794576
-0.765336
-0.530830
-0.052079
0.297371
0.679454
0.825094
0.742417
0.503558
0.233716
-0.252985
-0.538653
-0.741195
-0.748596
-0.580007
-0.252397
0.181995
0.596014
0.827078
0.839660
0.636058
0.382412
-0.090641
-0.494526
-0.684602
-0.762494
-0.701394
-0.433942
-0.030701
0.373652
0.739534
0.774804
0.784524
0.533120
-0.020360
-0.316814
-0.636691
-0.868789
-0.747290
-0.493945
-0.133158
0.383526
0.616191
0.808542
0.689732
0.591964
0.157458
-0.161211
-0.606136
-0.835964
-0.766008
-0.599176
-0.338889
0.127597
0.589600
0.743047
0.828425
0.659558
0.289716
0.016266
-0.429471
-0.705327
-0.839045
-0.685116
-0.395602
0.039156
0.432390
0.615089
0.862142
0.770529
0.515771
0.092418
-0.321367
-0.711242
-0.907045
-0.821882
-0.530854
-0.137419
0.207793
0.698242
0.812406
0.790178
0.517797
0.166957
-0.192769
-0.588910
-0.846268
-0.782628
-0.596968
-0.160613
0.175828
0.441089
0.741088
0.865764
0.626717
0.307148
-0.092579
-0.388017
-0.697249
-0.794585
-0.781321
-0.432694
-0.034102
0.408709
0.769916
0.786937
0.788013
0.488013
0.178265
-0.372094
-0.564029
-0.820266
-0.665794
-0.473724
-0.163427
0.328047
0.558212
0.837212
0.793147
0.537458
0.239167
-0.214355
-0.593034
-0.790509
-0.722682
-0.630529
-0.294197
0.111167
0.491744
0.716200
0.793778
0.743503
0.350164
-0.042238
-0.481399
-0.702332
-0.821473
-0.691001
-0.423347
-0.063445
0.390144
0.752533
0.750668
0.825461
0.461212
0.075412
-0.365223
-0.704937
-0.850218
-0.714335
-0.465857
-0.114141
0.305743
0.642223
0.827653
0.727453
0.536134
0.256912
-0.076489
-0.582625
-0.725086
-0.005774
0.041954
0.057580
0.022393
-0.035798
-0.069122
0.002027
-0.094334
-0.031498
0.037733
0.001539
0.009176
-0.007229
-0.039449
0.029532
0.025316
0.031188
0.002646
0.030367
0.037867
0.094122
-0.024954
-0.016205
-0.036480
0.103345
0.047705
0.048131
0.024015
0.031390
0.087909
-0.079950
0.004133
-0.006107
-0.001695
0.018648
-0.002125
-0.058008
-0.024616
0.041484
0.056809
-0.019659
0.063193
0.018658
0.005853
0.007524
-0.028811
-0.013960
0.012206
0.048827
0.037220
-0.030834
0.006539
-0.044191
-0.024213
-0.025701
0.028189
-0.008790
0.010955
0.063439
-0.071030
-0.044463
-0.003574
-0.062335
-0.066501
-0.056786
-0.052401
-0.081447
0.024484
-0.065832
0.002747
0.034428
-0.004271
0.083175
-0.033994
-0.026699
-0.088617
0.052487
0.003786
0.021862
-0.072798
-0.027474
-0.037792
0.086277
0.052059
0.025138
0.039881
0.059347
-0.063155
-0.050792
0.007074
-0.070016
-0.050303
0.060432
-0.064108
-0.004828
0.039156
-0.009112
0.016662
0.021822
0.013060
-0.051889
0.459426
0.664048
0.801018
0.750352
0.440255
0.129924
-0.275934
-0.607181
-0.791790
-0.716908
-0.606540
-0.275865
0.074919
0.552295
0.750603
0.766348
0.700109
0.375934
-0.014730
-0.397344
-0.657318
-0.737405
-0.709800
-0.504986
-0.134367
0.267443
0.474760
0.670895
0.830561
0.610455
0.143597
-0.067878
-0.465456
-0.693174
-0.810977
-0.679675
-0.259723
-0.026003
0.309256
0.654593
0.817074
0.705636
0.468381
0.119389
-0.222859
-0.587362
-0.731715
-0.722947
-0.557835
-0.230641
0.174647
0.627982
0.723950
0.802796
0.658076
0.374024
-0.090513
-0.443144
-0.675931
-0.673433
-0.754429
-0.430152
-0.130299
0.287242
0.540761
0.803285
0.726726
0.515728
0.187914
-0.196485
-0.566395
-0.702343
-0.765092
-0.672684
-0.328724
0.052881
0.506013
0.695436
0.774929
0.605753
0.372964
0.006112
-0.355264
-0.708603
-0.708455
-0.781079
-0.462837
-0.129690
0.196664
0.610072
0.784635
0.803150
0.682358
0.255075
-0.081258
-0.603655
-0.765652
-0.832392
-0.562981
-0.336336
0.021410
0.368383
0.584449
0.759429
0.766772
0.496888
0.093743
-0.280094
-0.621703
-0.747151
-0.808106
-0.523373
-0.318962
0.128052
0.501376
0.789315
0.743001
0.649683
0.373657
0.013427
-0.497132
-0.704508
-0.739435
-0.765162
-0.414253
-0.164788
0.316349
0.503811
0.840707
0.768157
0.571716
0.222799
-0.084658
-0.502915
-0.748793
-0.780669
-0.718519
-0.381663
0.011865
0.410398
0.700698
0.779332
0.792298
0.461795
0.080166
-0.296042
-0.743754
-0.727273
-0.787262
-0.629654
-0.268950
0.114025
0.582631
0.723529
0.774489
0.563471
0.346341
-0.118014
-0.348865
-0.655534
-0.817756
-0.649053
-0.504510
-0.004333
0.404151
0.604186
0.862128
0.743761
0.517817
0.182357
-0.172813
-0.561315
-0.717952
-0.724156
-0.536778
-0.317789
0.029884
0.405890
0.701382
0.835243
0.630549
0.335370
0.009702
-0.400556
-0.631182
-0.743472
-0.825420
-0.494335
-0.153083
0.186864
0.565616
0.724453
0.835197
0.497916
0.244591
-0.149585
-0.502930
-0.770419
-0.769866
-0.712543
-0.420088
-0.117601
0.353177
0.629619
0.727149
0.636535
0.402444
0.175661
-0.276005
-0.559563
-0.809006
-0.819298
-0.581470
-0.346462
0.175021
0.421659
0.788789
0.746852
0.644312
0.357053
-0.072046
-0.377476
-0.673531
-0.836201
-0.736825
-0.471867
-0.199175
0.377010
0.663334
0.698009
0.805816
0.472292
0.201799
-0.180807
-0.444025
-0.694838
-0.869975
-0.657334
-0.290017
0.000154
0.416926
0.679931
0.804606
0.731662
0.445262
0.088360
-0.273954
-0.642597
-0.639764
-0.765343
-0.604643
-0.205240
0.128529
0.527168
0.765348
0.762572
0.692409
0.382744
0.002827
-0.396160
-0.746344
-0.773977
-0.738715
-0.392954
-0.134343
0.228280
0.524545
0.729455
0.761603
0.541100
0.230027
-0.199647
-0.550211
-0.778024
-0.801671
-0.590892
-0.266853
-0.026173
0.440784
0.671576
0.830684
0.627896
0.342993
0.133354
-0.288410
-0.629876
-0.812154
-0.768855
-0.496237
-0.137340
0.214831
0.508481
0.808273
0.801018
0.651391
0.367183
-0.112486
-0.434713
-0.730364
-0.797644
-0.604167
-0.423205
-0.116439
0.360924
0.658188
0.775336
0.674987
0.409175
0.085479
-0.280856
-0.479551
-0.799017
-0.730946
-0.517472
-0.265712
0.125341
0.413520
0.737190
0.782899
0.705843
0.352201
-0.064588
-0.351145
-0.633670
-0.790259
-0.825632
-0.506636
-0.152456
0.292495
0.541567
0.802074
0.788364
0.462921
0.308757
-0.125184
-0.468456
-0.766698
-0.787078
-0.613140
-0.348766
0.031475
0.455508
0.731255
0.904422
0.724886
0.454703
0.048403
-0.251574
-0.501339
-0.836771
-0.736504
-0.607185
-0.289901
0.099538
0.545844
0.742411
0.711609
0.713700
0.442525
0.014742
-0.359710
-0.574312
-0.844500
-0.680938
-0.438832
-0.028618
0.301309
0.589497
0.817718
0.765053
0.479640
0.335821
-0.159397
-0.532738
-0.742890
-0.770544
-0.617048
-0.324091
0.073000
0.428533
0.752826
0.846058
0.769660
0.437734
0.043089
-0.321356
-0.574213
-0.751871
-0.696757
-0.535073
-0.090414
0.202907
0.540540
0.683422
0.710226
0.591662
0.208493
-0.143317
-0.507433
-0.767083
-0.781548
-0.717256
-0.452166
-0.157027
0.268799
0.639166
0.837731
0.767572
0.450120
0.143185
-0.248351
-0.584356
-0.719486
-0.791419
-0.608439
-0.235707
0.083817
0.430935
0.728509
0.792372
0.664355
0.402072
0.083503
-0.352340
-0.654721
-0.831890
-0.705954
-0.437724
-0.246975
0.215098
0.594870
0.703483
0.845259
0.523660
0.189248
-0.094815
-0.466895
-0.706021
-0.869377
-0.671955
-0.388031
0.063607
0.347308
0.642809
0.847869
0.783806
0.514380
0.138520
-0.313990
-0.580181
-0.720980
-0.782329
-0.541046
-0.305173
0.135687
0.501702
0.755431
0.779093
0.674033
0.423959
0.020025
-0.504310
-0.565152
-0.747087
-0.739406
-0.398972
-0.183152
0.298475
0.552495
0.740754
0.786531
0.565525
0.225255
-0.250537
-0.466370
-0.749100
-0.810729
-0.687956
-0.344323
0.030859
0.427131
0.659409
0.829418
0.677760
0.398468
0.147049
-0.374385
-0.663631
-0.789548
-0.778747
-0.513936
-0.206930
0.182458
0.545342
0.809683
0.765479
0.729668
0.258925
-0.064222
-0.433026
-0.690279
-0.704661
-0.707196
-0.406453
-0.013177
0.254934
0.637956
0.793864
0.728879
0.477445
0.283264
-0.192303
-0.628646
-0.793546
-0.852084
-0.551032
-0.269140
0.159177
0.469345
0.811104
0.855371
0.618621
0.484582
0.023419
-0.375998
-0.788617
-0.824476
-0.763024
-0.525977
-0.197063
0.192589
0.569432
0.702710
0.681132
0.632735
0.408219
-0.070502
-0.496372
-0.664225
-0.785415
-0.608344
-0.326788
-0.005565
0.458170
0.707556
0.879156
0.702236
0.482634
0.105475
-0.247923
-0.646664
-0.834744
-0.634549
-0.530230
-0.314094
0.133647
0.516846
0.764852
0.934471
0.615110
0.284576
-0.029268
-0.403599
-0.687965
-0.850347
-0.674300
-0.385373
-0.045401
0.251292
0.575413
0.692322
0.735994
0.536027
0.174349
-0.113085
-0.442804
-0.781117
-0.807341
-0.604095
-0.246559
0.072691
0.427563
0.757898
0.776781
0.644819
0.513645
0.113241
-0.284958
-0.670340
-0.771778
-0.730179
-0.453354
-0.158579
0.117294
0.634298
0.757522
0.814937
0.748445
0.371221
-0.113864
-0.486360
-0.720571
-0.922723
-0.681170
-0.313288
-0.037124
0.424587
0.663085
0.710270
0.774619
0.598463
0.126113
-0.288441
-0.575679
-0.657270
-0.789800
-0.613576
-0.249434
0.081445
0.350930
0.735729
0.800100
0.675821
0.453951
0.001962
-0.451768
-0.722896
-0.753160
-0.701682
-0.469515
-0.092867
0.312138
0.661350
0.753146
0.831322
0.566172
0.373263
-0.182490
-0.383333
-0.746372
-0.774659
-0.720969
-0.402309
-0.038231
0.426705
0.716132
0.815066
0.767924
0.500529
0.120902
-0.206799
-0.672924
-0.699293
-0.836094
-0.598465
-0.270766
0.225865
0.570486
0.769218
0.669580
0.716830
0.311162
-0.016581
-0.380669
-0.664777
-0.858905
-0.700515
-0.469847
-0.027413
0.269353
0.640998
0.797338
0.684239
0.532098
0.241419
-0.194797
-0.486112
-0.692697
-0.742538
-0.719547
-0.255810
0.122829
0.470693
0.660182
0.811082
0.685401
0.486507
0.080403
-0.382802
-0.674299
-0.844755
-0.816115
-0.559096
-0.130885
0.205397
0.565088
0.774061
0.779522
0.648015
0.274847
0.024713
-0.405653
-0.695678
-0.832197
-0.642526
-0.417883
-0.082014
0.369124
0.652431
0.771160
0.742116
0.617065
0.237371
-0.167918
-0.602404
-0.718908
-0.805104
-0.653086
-0.242229
0.089334
0.452416
0.706770
0.738705
0.690957
0.449496
0.042635
-0.249848
-0.637059
-0.850741
-0.707087
-0.547319
-0.224690
0.162389
0.573058
0.819271
0.752126
0.602580
0.273539
-0.100720
-0.547193
-0.825131
-0.867942
-0.685466
-0.263656
0.015108
0.318232
0.630091
0.799076
0.811161
0.438233
0.126769
-0.216516
-0.601152
-0.805331
-0.790333
-0.540031
-0.278052
0.188882
0.360115
0.748012
0.719673
0.702736
0.369679
-0.092989
-0.444966
-0.766475
-0.774370
-0.739122
-0.488540
-0.107901
0.316007
0.550794
0.823222
0.691594
0.558205
0.426073
-0.178256
-0.423393
-0.696697
-0.784179
-0.658372
-0.332527
0.052949
0.431389
0.679703
0.816499
0.701435
0.463369
0.082410
-0.302208
-0.524971
-0.741789
-0.766097
-0.473078
-0.204397
0.164073
0.590614
0.778572
0.777811
0.584794
0.374189
-0.029511
-0.384577
-0.641324
-0.876844
-0.745076
-0.440939
-0.049760
0.243310
0.605185
0.738217
0.818735
0.592053
0.221949
-0.183148
-0.538107
-0.750927
-0.698068
-0.671982
-0.281956
0.068826
0.470236
0.681761
0.862968
0.692325
0.469248
0.014009
-0.360514
-0.543986
-0.777625
-0.675088
-0.586086
-0.138812
0.132663
0.543806
0.838190
0.744152
0.627552
0.325908
-0.082622
-0.434513
-0.732193
-0.774193
-0.790908
-0.277844
0.036160
0.374970
0.672108
0.803260
0.754538
0.516994
0.130881
-0.210715
-0.565302
-0.827154
-0.819547
-0.561369
-0.257513
0.145729
0.523758
0.681886
0.720781
0.721815
0.338866
-0.001957
-0.349795
-0.617260
-0.772995
-0.750851
-0.436890
-0.209054
0.273447
0.618971
0.801419
0.859316
0.627076
0.287547
-0.122992
-0.430593
-0.717443
-0.819496
-0.483144
-0.345126
0.027006
0.470946
0.725940
0.786747
0.545489
0.472393
0.112100
-0.285548
-0.564924
-0.841386
-0.777217
-0.521209
-0.207169
0.187660
0.479688
0.609964
0.851182
0.649027
0.313239
-0.022783
-0.435792
-0.738375
-0.796724
-0.693941
-0.352175
-0.083587
0.362076
0.590059
0.761627
0.866417
0.506511
0.228028
-0.120458
-0.504906
-0.723200
-0.822096
-0.615276
-0.343708
0.132613
0.416189
0.690439
0.732172
0.675531
0.461458
0.101428
-0.328065
-0.677580
-0.802918
-0.746786
-0.526583
-0.209614
0.211561
0.650230
0.692952
0.747061
0.681031
0.195428
-0.101697
-0.403444
-0.754261
-0.805223
-0.730034
-0.454696
-0.053668
-0.014660
-0.009713
-0.013128
0.054495
-0.067994
-0.037202
-0.092937
0.012279
-0.023316
-0.044071
0.045347
-0.061545
-0.005243
-0.066760
-0.049232
-0.093132
0.086466
-0.041359
0.068838
-0.055980
0.037819
-0.023599
0.043275
-0.011977
-0.014027
0.032459
0.041178
0.004801
-0.060010
0.111048
0.054630
0.062572
0.083193
0.014487
-0.021494
-0.022673
0.030492
-0.077727
-0.041868
-0.008516
0.041214
0.045961
0.068538
-0.001452
0.001330
0.013091
0.008124
0.035552
-0.059368
0.064798
-0.000289
-0.042573
0.007448
-0.009163
-0.006817
0.011007
0.017111
0.058767
0.040243
-0.017163
-0.032914
-0.054945
-0.035266
0.035770
0.108906
0.061024
0.087469
0.021161
-0.012399
-0.077352
0.069316
-0.005480
-0.072307
-0.002821
0.067728
-0.022380
-0.004985
-0.021541
0.003114
0.058666
-0.066561
0.032102
0.005088
-0.035174
-0.015501
0.036636
-0.066180
0.073476
0.066971
0.039537
0.015136
-0.006147
0.014187
-0.027063
-0.020114
0.045980
-0.018895
-0.078257
0.078125
-0.090869
0.272278
0.644865
0.715030
0.760305
0.574843
0.104265
-0.214729
-0.503332
-0.716053
-0.822471
-0.598039
-0.383408
-0.011378
0.352573
0.681231
0.742532
0.682556
0.513896
0.105341
-0.160034
-0.467746
-0.745782
-0.884658
-0.654260
-0.384581
0.062682
0.427336
0.710985
0.745104
0.696153
0.417734
0.098069
-0.195793
-0.508816
-0.777579
-0.652608
-0.544793
-0.208588
0.137823
0.341821
0.704415
0.737649
0.649251
0.440720
0.196082
-0.169004
-0.502777
-0.769076
-0.664911
-0.619353
-0.368072
0.167802
0.455569
0.721038
0.813305
0.696433
0.454082
0.149013
-0.296194
-0.568667
-0.798131
-0.725782
-0.533793
-0.263306
0.160581
0.482481
0.618176
0.813941
